wavelength,Heat Sweep 100C,Heat Sweep 150C,Heat Sweep 200C,Heat Sweep 230,Heat Sweep 50C,Heat Sweep RT
190,1.7207500000000002,1.7345000000000002,1.71125,1.6853333333333333,1.69475,1.7120000000000002
191,1.756,1.76325,1.76025,1.7273333333333334,1.72325,1.7396
192,1.77025,1.786,1.77075,1.7530000000000001,1.754,1.764
193,1.7915,1.79925,1.793,1.7696666666666665,1.7697500000000002,1.7742
194,1.80425,1.8112499999999998,1.8085,1.7766666666666666,1.7802499999999999,1.7824000000000002
195,1.80725,1.81225,1.81125,1.782,1.78725,1.7863999999999998
196,1.8085,1.8159999999999998,1.8177499999999998,1.790333333333333,1.79475,1.7939999999999998
197,1.818,1.8215,1.8219999999999998,1.798,1.7972499999999998,1.7974
198,1.81975,1.82275,1.828,1.804,1.798,1.7998
199,1.82,1.82275,1.82825,1.8063333333333336,1.7987499999999998,1.7993999999999999
200,1.80975,1.8185,1.8257500000000002,1.803,1.7927499999999998,1.7932
201,1.799,1.8092499999999998,1.8195000000000001,1.7906666666666666,1.78125,1.7845999999999997
202,1.788,1.799,1.81225,1.7826666666666666,1.7715,1.7730000000000001
203,1.77125,1.7854999999999999,1.8055,1.7753333333333332,1.7572499999999998,1.7614
204,1.7525,1.76525,1.78525,1.758,1.74,1.7426000000000001
205,1.728,1.7397500000000001,1.7625,1.7353333333333334,1.714,1.7152
206,1.6935,1.7077499999999999,1.7335,1.7060000000000002,1.6805,1.6804
207,1.65375,1.6677499999999998,1.70025,1.6703333333333334,1.64175,1.6396000000000002
208,1.6075,1.6225,1.6597499999999998,1.6306666666666667,1.59525,1.5942
209,1.5595,1.5705,1.61225,1.5816666666666668,1.54525,1.5441999999999998
210,1.5114999999999998,1.5222499999999999,1.5625,1.531,1.4945,1.4946
211,1.4555000000000002,1.4685000000000001,1.5119999999999998,1.4786666666666666,1.44325,1.4427999999999999
212,1.40225,1.418,1.46,1.4280000000000002,1.3915,1.3893999999999997
213,1.35275,1.36775,1.40975,1.3816666666666666,1.3405,1.3392000000000002
214,1.303,1.3165,1.3587500000000001,1.3313333333333333,1.291,1.2879999999999998
215,1.2845,1.3007499999999999,1.35175,1.3166666666666667,1.27025,1.2706
216,1.25225,1.26675,1.319,1.2856666666666667,1.24025,1.234
217,1.20875,1.2215,1.2767499999999998,1.2409999999999999,1.19675,1.1916
218,1.1635,1.17825,1.23225,1.1963333333333332,1.15175,1.1468
219,1.12575,1.136,1.1905000000000001,1.155,1.11075,1.1108
220,1.0855000000000001,1.09875,1.1515,1.1153333333333333,1.0707499999999999,1.0714000000000001
221,1.05025,1.0645000000000002,1.1125,1.08,1.038,1.035
222,1.01925,1.0335,1.0812500000000003,1.0473333333333332,1.0065,1.0048
223,0.9822500000000001,0.998,1.0355,1.0066666666666666,0.97,0.9676
224,0.9564999999999999,0.9734999999999999,1.008,0.98,0.945,0.9418
225,0.938,0.95575,0.9882500000000001,0.9606666666666666,0.9262500000000001,0.9238000000000002
226,0.9225000000000001,0.9417499999999999,0.9735,0.945,0.913,0.9103999999999999
227,0.9135,0.93275,0.9632499999999999,0.934,0.9032500000000001,0.9034000000000001
228,0.9117500000000001,0.9317500000000001,0.9599999999999999,0.9296666666666668,0.902,0.9034000000000001
229,0.919,0.93875,0.96175,0.9346666666666668,0.9095,0.907
230,0.9265000000000001,0.944,0.96675,0.9419999999999998,0.9135000000000001,0.9156000000000001
231,0.93325,0.9512499999999999,0.97,0.9486666666666667,0.92025,0.9202
232,0.9427499999999999,0.9595,0.979,0.9603333333333334,0.9285000000000001,0.9288000000000001
233,0.9505,0.9684999999999999,0.9877499999999999,0.9696666666666666,0.9382499999999999,0.9384
234,0.962,0.98025,0.999,0.98,0.9482499999999999,0.9490000000000001
235,0.9737499999999999,0.99225,1.012,0.9906666666666667,0.96075,0.9597999999999999
236,0.9855,1.0045,1.0225,1.0033333333333332,0.971,0.9728
237,0.996,1.0154999999999998,1.0364999999999998,1.0159999999999998,0.984,0.9848000000000001
238,1.0070000000000001,1.0262499999999999,1.0455,1.0276666666666667,0.9940000000000001,0.9948
239,1.0150000000000001,1.0337500000000002,1.0545,1.0363333333333333,1.0010000000000001,1.0026
240,1.01825,1.03775,1.0595,1.0423333333333333,1.00525,1.0074
241,1.01825,1.03925,1.0619999999999998,1.0439999999999998,1.0065,1.0086
242,1.01975,1.04025,1.0635,1.0439999999999998,1.008,1.0105999999999997
243,1.021,1.042,1.0665,1.0466666666666666,1.01,1.0146000000000002
244,1.021,1.0425,1.0667499999999999,1.0473333333333334,1.01,1.0134
245,1.01025,1.0295,1.0587499999999999,1.0446666666666669,0.9974999999999999,1.0006
246,0.99,1.0107499999999998,1.041,1.0250000000000001,0.97725,0.9816
247,0.97325,0.99575,1.0245,1.0043333333333333,0.9592499999999999,0.9663999999999999
248,0.9605,0.9835,1.00975,0.9923333333333333,0.949,0.9545999999999999
249,0.9492499999999999,0.971,0.9947499999999999,0.9796666666666667,0.93625,0.9416
250,0.9305000000000001,0.9527499999999999,0.9784999999999999,0.9656666666666668,0.9165,0.9214
251,0.907,0.92825,0.956,0.9436666666666667,0.8927499999999999,0.8952
252,0.88,0.90125,0.93025,0.9173333333333334,0.86625,0.8708
253,0.8567499999999999,0.879,0.9067500000000001,0.8923333333333333,0.843,0.851
254,0.83675,0.8605,0.8865000000000001,0.8726666666666668,0.8225,0.8320000000000001
255,0.8162499999999999,0.8379999999999999,0.8665,0.8533333333333334,0.8005,0.8110000000000002
256,0.7945000000000001,0.816,0.845,0.8323333333333333,0.7799999999999999,0.788
257,0.771,0.7927500000000001,0.822,0.8063333333333333,0.75825,0.7657999999999999
258,0.7477499999999999,0.7705,0.799,0.7840000000000001,0.7362500000000001,0.7436
259,0.7274999999999999,0.7505,0.777,0.761,0.716,0.7232
260,0.7117499999999999,0.7370000000000001,0.75875,0.7453333333333334,0.6994999999999999,0.7070000000000001
261,0.702,0.72875,0.745,0.7326666666666667,0.6912499999999999,0.6979999999999998
262,0.69775,0.7215,0.7389999999999999,0.727,0.6865000000000001,0.6926
263,0.692,0.7144999999999999,0.73275,0.7246666666666667,0.679,0.6872
264,0.6839999999999999,0.7054999999999999,0.7244999999999999,0.717,0.67,0.6794
265,0.674,0.69625,0.715,0.7056666666666667,0.6607500000000001,0.6700000000000002
266,0.6637500000000001,0.6862499999999999,0.706,0.695,0.6507499999999999,0.6608
267,0.65625,0.6787500000000001,0.6969999999999998,0.6843333333333333,0.6425,0.6526
268,0.651,0.6745,0.691,0.6779999999999999,0.63725,0.6479999999999999
269,0.647,0.671,0.68625,0.6733333333333333,0.633,0.6439999999999999
270,0.6427499999999999,0.666,0.682,0.6696666666666667,0.62875,0.6399999999999999
271,0.6365000000000001,0.66,0.6767500000000001,0.664,0.6225,0.6344000000000001
272,0.6335,0.6575000000000001,0.6719999999999999,0.6583333333333333,0.619,0.6314
273,0.63425,0.6585000000000001,0.6715,0.6576666666666666,0.61925,0.6325999999999999
274,0.63575,0.6595000000000001,0.67125,0.6596666666666667,0.6205,0.6336
275,0.63575,0.65925,0.67125,0.6593333333333334,0.61975,0.6336
276,0.632,0.65525,0.6685,0.658,0.617,0.6302
277,0.63025,0.6525,0.66525,0.654,0.61375,0.6284
278,0.62875,0.65225,0.6635,0.6533333333333333,0.6134999999999999,0.6275999999999999
279,0.62825,0.65225,0.6625,0.6523333333333333,0.612,0.6274
280,0.627,0.6495000000000001,0.6617500000000001,0.6513333333333334,0.61175,0.6268
281,0.6247499999999999,0.64625,0.66025,0.6486666666666667,0.60675,0.6234
282,0.62125,0.645,0.6567500000000001,0.648,0.6054999999999999,0.6214000000000001
283,0.6205,0.64475,0.65525,0.6456666666666667,0.60475,0.621
284,0.62075,0.64475,0.65525,0.6456666666666667,0.60475,0.6208
285,0.62025,0.644,0.65375,0.6446666666666667,0.6035,0.6208
286,0.6185,0.64125,0.65175,0.6436666666666667,0.6024999999999999,0.6188
287,0.61675,0.6405,0.6505000000000001,0.6393333333333334,0.60175,0.6188
288,0.61675,0.641,0.65,0.638,0.6012500000000001,0.6184000000000001
289,0.6164999999999999,0.64,0.6485000000000001,0.6386666666666667,0.5994999999999999,0.617
290,0.61375,0.63625,0.64525,0.6356666666666667,0.59375,0.6146
291,0.6105,0.63475,0.644,0.6336666666666667,0.5925,0.612
292,0.6105,0.63475,0.6425000000000001,0.6336666666666667,0.592,0.612
293,0.61025,0.6335,0.6425000000000001,0.633,0.59175,0.6113999999999999
294,0.60975,0.631,0.6415,0.6306666666666666,0.58925,0.6106
295,0.608,0.6295,0.63775,0.6263333333333333,0.5865,0.6093999999999999
296,0.606,0.6285000000000001,0.635,0.625,0.585,0.6062000000000001
297,0.6035,0.6275,0.6347499999999999,0.6243333333333333,0.5842499999999999,0.606
298,0.60375,0.62725,0.63425,0.6246666666666667,0.5834999999999999,0.6058
299,0.604,0.62725,0.634,0.625,0.58475,0.6068
300,0.60275,0.62725,0.63425,0.6243333333333333,0.585,0.6063999999999999
301,0.603,0.62575,0.633,0.623,0.58375,0.6054
302,0.60125,0.624,0.6315,0.6226666666666666,0.58275,0.6038
303,0.5992500000000001,0.6232500000000001,0.6299999999999999,0.622,0.5822499999999999,0.603
304,0.5987499999999999,0.623,0.627,0.621,0.57975,0.6015999999999999
305,0.59525,0.6194999999999999,0.6252500000000001,0.619,0.57575,0.597
306,0.5902499999999999,0.61625,0.6235,0.614,0.5722499999999999,0.5946
307,0.5884999999999999,0.61225,0.618,0.608,0.5685,0.5902000000000001
308,0.5842499999999999,0.608,0.61425,0.6046666666666666,0.5645,0.5871999999999999
309,0.5825,0.6067499999999999,0.6125,0.6016666666666667,0.5635,0.5862
310,0.58175,0.6067499999999999,0.61175,0.6013333333333333,0.5632499999999999,0.5862
311,0.5812499999999999,0.606,0.6107499999999999,0.601,0.5625,0.5856
312,0.57975,0.60525,0.61025,0.6006666666666667,0.56175,0.5845999999999999
313,0.5762499999999999,0.60175,0.6074999999999999,0.5973333333333333,0.558,0.5808
314,0.5732499999999999,0.599,0.60375,0.593,0.55525,0.5784
315,0.5742499999999999,0.6007499999999999,0.6034999999999999,0.5923333333333333,0.5565,0.5803999999999999
316,0.5752499999999999,0.6020000000000001,0.6044999999999999,0.5953333333333334,0.55725,0.5810000000000001
317,0.5734999999999999,0.60075,0.60375,0.5950000000000001,0.5562500000000001,0.579
318,0.56975,0.59625,0.6004999999999999,0.5910000000000001,0.5527500000000001,0.5756
319,0.5685,0.595,0.59775,0.589,0.5515,0.5744
320,0.56725,0.59475,0.59775,0.5883333333333333,0.5515,0.5742
321,0.5609999999999999,0.5884999999999999,0.595,0.585,0.5462500000000001,0.5696
322,0.5537500000000001,0.5812499999999999,0.5882499999999999,0.5763333333333333,0.5387500000000001,0.562
323,0.5517500000000001,0.5792499999999999,0.584,0.5716666666666667,0.5369999999999999,0.5608000000000001
324,0.5545,0.5825,0.585,0.5726666666666667,0.53925,0.5631999999999999
325,0.5565,0.5845,0.586,0.575,0.541,0.5648
326,0.55675,0.58475,0.5862499999999999,0.5763333333333333,0.54175,0.5650000000000001
327,0.556,0.58375,0.5862499999999999,0.5763333333333333,0.541,0.5644
328,0.5527500000000001,0.5812499999999999,0.584,0.5743333333333333,0.5385,0.5614000000000001
329,0.54825,0.5774999999999999,0.58,0.5706666666666665,0.5357500000000001,0.5574000000000001
330,0.5437500000000001,0.5727499999999999,0.5762499999999999,0.5656666666666667,0.5315000000000001,0.5534000000000001
331,0.54,0.5687499999999999,0.57275,0.5619999999999999,0.52825,0.5502
332,0.53925,0.5682499999999999,0.5715,0.56,0.527,0.55
333,0.54025,0.5694999999999999,0.5722499999999999,0.5603333333333335,0.528,0.5504
334,0.54,0.5700000000000001,0.5724999999999999,0.5613333333333334,0.52825,0.5502
335,0.53925,0.56775,0.57175,0.5606666666666668,0.5262500000000001,0.5492000000000001
336,0.53525,0.56475,0.569,0.5566666666666668,0.524,0.5458000000000001
337,0.5335000000000001,0.5627500000000001,0.5665,0.5540000000000002,0.5225,0.5442
338,0.53225,0.56225,0.56575,0.5536666666666666,0.52125,0.5434
339,0.5302500000000001,0.56,0.5634999999999999,0.5523333333333335,0.52,0.5414000000000001
340,0.5262500000000001,0.55625,0.5605,0.5486666666666667,0.51725,0.538
341,0.52175,0.552,0.557,0.5443333333333334,0.51325,0.5342
342,0.5185,0.5487500000000001,0.55375,0.54,0.5105000000000001,0.531
343,0.5185,0.549,0.5527500000000001,0.539,0.5105000000000001,0.5314
344,0.52125,0.55125,0.55375,0.5403333333333334,0.51325,0.5344
345,0.5235,0.5530000000000002,0.55625,0.544,0.5145,0.5364000000000001
346,0.52275,0.5527500000000001,0.5565,0.5446666666666667,0.5145,0.5356
347,0.51925,0.5495000000000001,0.55425,0.5416666666666667,0.512,0.5314
348,0.51525,0.546,0.5505,0.5380000000000001,0.5087499999999999,0.5282
349,0.513,0.54375,0.5485,0.5356666666666667,0.50675,0.5278
350,0.51,0.5407500000000001,0.5475000000000001,0.5336666666666667,0.50375,0.5244
351,0.50725,0.5385,0.544,0.5296666666666666,0.50225,0.5226
352,0.50475,0.536,0.542,0.5283333333333333,0.5015000000000001,0.522
353,0.504,0.535,0.5415000000000001,0.5266666666666667,0.50125,0.5196
354,0.50275,0.5325000000000001,0.54025,0.5263333333333334,0.49949999999999994,0.519
355,0.50175,0.532,0.539,0.5236666666666667,0.49875,0.5178
356,0.502,0.5327500000000001,0.539,0.524,0.49924999999999997,0.5204
357,0.50275,0.5327500000000001,0.5395000000000001,0.525,0.4995,0.5206
358,0.501,0.5325,0.53925,0.524,0.498,0.5176000000000001
359,0.49775,0.5305,0.538,0.5206666666666667,0.49725,0.5154
360,0.5015000000000001,0.5345,0.5392500000000001,0.5203333333333333,0.49975,0.5178
361,0.5087499999999999,0.5412500000000001,0.5417500000000001,0.529,0.50475,0.5232000000000001
362,0.51225,0.54225,0.5437500000000001,0.537,0.51025,0.5236000000000001
363,0.51225,0.5415000000000001,0.5445,0.537,0.50925,0.5234
364,0.5105,0.54025,0.5427500000000001,0.5336666666666667,0.5065,0.522
365,0.50475,0.53825,0.541,0.529,0.50575,0.5198
366,0.5025000000000001,0.5365,0.5402500000000001,0.527,0.503,0.5192
367,0.501,0.5335000000000001,0.53925,0.526,0.501,0.5164
368,0.4975,0.5305,0.53625,0.5236666666666667,0.4985,0.515
369,0.49525,0.52725,0.534,0.52,0.49625,0.513
370,0.49449999999999994,0.526,0.5335,0.5183333333333334,0.49524999999999997,0.5120000000000001
371,0.494,0.52575,0.533,0.5176666666666667,0.49475,0.5118
372,0.49124999999999996,0.5245,0.53125,0.5156666666666667,0.49375,0.5102
373,0.4885,0.52175,0.5305,0.5123333333333333,0.49225,0.5086
374,0.486,0.5195000000000001,0.5285,0.5106666666666667,0.491,0.507
375,0.486,0.5195000000000001,0.5285,0.5093333333333333,0.49049999999999994,0.5067999999999999
376,0.48975,0.52275,0.5305,0.511,0.493,0.5105999999999999
377,0.49475,0.5285000000000001,0.5347500000000001,0.5156666666666667,0.49724999999999997,0.5136000000000001
378,0.49775,0.53125,0.53625,0.521,0.499,0.5152
379,0.49724999999999997,0.53075,0.5365,0.5216666666666666,0.49950000000000006,0.5154
380,0.492,0.5285,0.536,0.52,0.49925,0.5134000000000001
381,0.4895,0.5265,0.53525,0.517,0.49675,0.5118
382,0.48924999999999996,0.5255000000000001,0.5345,0.5163333333333333,0.49650000000000005,0.5118
383,0.48975,0.5265000000000001,0.5347500000000001,0.516,0.49624999999999997,0.5118
384,0.49024999999999996,0.5265000000000001,0.5347500000000001,0.5163333333333333,0.49675,0.5120000000000001
385,0.49024999999999996,0.52675,0.5347500000000001,0.5163333333333333,0.49675,0.5132
386,0.49,0.52675,0.5355000000000001,0.5163333333333333,0.49775,0.5132
387,0.48975,0.52825,0.536,0.5163333333333333,0.49775,0.5136000000000001
388,0.48875,0.5265,0.5355000000000001,0.5163333333333333,0.498,0.5138
389,0.48574999999999996,0.52475,0.5347500000000001,0.5146666666666667,0.49724999999999997,0.512
390,0.47675,0.51325,0.524,0.5016666666666667,0.487,0.5014
391,0.47225,0.50975,0.51925,0.49899999999999994,0.48375,0.49960000000000004
392,0.47125,0.509,0.5175000000000001,0.49833333333333335,0.48174999999999996,0.4992000000000001
393,0.47125,0.50875,0.516,0.49833333333333335,0.481,0.4984
394,0.47125,0.50875,0.5155,0.49766666666666665,0.481,0.4981999999999999
395,0.47075,0.5085000000000001,0.51575,0.49700000000000005,0.48,0.4974
396,0.46950000000000003,0.5075000000000001,0.51475,0.496,0.47875,0.4952
397,0.46799999999999997,0.505,0.51275,0.49366666666666664,0.47775,0.49339999999999995
398,0.46625,0.50425,0.5112500000000001,0.49300000000000005,0.47675,0.493
399,0.46575,0.504,0.5112500000000001,0.4923333333333333,0.47574999999999995,0.49260000000000004
400,0.46449999999999997,0.50275,0.5105,0.49033333333333334,0.47525,0.4915999999999999
401,0.4615,0.50225,0.50875,0.48900000000000005,0.4735,0.4901999999999999
402,0.46075,0.50025,0.5075000000000001,0.4876666666666667,0.473,0.48979999999999996
403,0.46025000000000005,0.49949999999999994,0.5075000000000001,0.48633333333333334,0.47225,0.4894
404,0.4605,0.5002500000000001,0.5075000000000001,0.48633333333333334,0.4725,0.48999999999999994
405,0.46075,0.5015000000000001,0.508,0.48633333333333334,0.4735,0.4904
406,0.46075,0.5015000000000001,0.508,0.48733333333333334,0.473,0.49060000000000004
407,0.45975,0.50125,0.50775,0.48733333333333334,0.47274999999999995,0.4908
408,0.459,0.5005000000000001,0.50675,0.486,0.47150000000000003,0.4896
409,0.45875000000000005,0.5,0.50675,0.48500000000000004,0.47150000000000003,0.48900000000000005
410,0.45775,0.5002500000000001,0.50675,0.48500000000000004,0.47150000000000003,0.4892
411,0.4575,0.5002500000000001,0.506,0.48533333333333334,0.47150000000000003,0.4896
412,0.45725,0.5002500000000001,0.5057499999999999,0.48533333333333334,0.47150000000000003,0.4894
413,0.45675000000000004,0.499,0.5057499999999999,0.48299999999999993,0.47050000000000003,0.488
414,0.45625,0.4985,0.50525,0.482,0.47,0.48760000000000003
415,0.455,0.49824999999999997,0.5045000000000001,0.48166666666666663,0.46925000000000006,0.4864
416,0.4545,0.49674999999999997,0.504,0.48066666666666663,0.46875,0.48579999999999995
417,0.4525,0.496,0.50375,0.47933333333333333,0.46775,0.4856
418,0.45075,0.49424999999999997,0.5022500000000001,0.47766666666666663,0.46699999999999997,0.4837999999999999
419,0.44925,0.493,0.50175,0.47533333333333333,0.46525,0.4835999999999999
420,0.449,0.49274999999999997,0.50125,0.4746666666666666,0.46475,0.48339999999999994
421,0.4495,0.49350000000000005,0.501,0.4746666666666666,0.46475,0.484
422,0.44975000000000004,0.49375,0.5005000000000001,0.4746666666666666,0.4645,0.4842000000000001
423,0.44975000000000004,0.49375,0.50025,0.4746666666666666,0.4645,0.484
424,0.44975000000000004,0.49375,0.49975,0.4746666666666666,0.46475,0.4842000000000001
425,0.44975000000000004,0.49375,0.49950000000000006,0.4749999999999999,0.4645,0.4842000000000001
426,0.45025,0.49375,0.49950000000000006,0.4756666666666667,0.46475,0.4842000000000001
427,0.45075000000000004,0.49375,0.49950000000000006,0.47533333333333333,0.465,0.485
428,0.45075000000000004,0.49375,0.49924999999999997,0.47533333333333333,0.46525000000000005,0.485
429,0.451,0.49350000000000005,0.4985,0.47533333333333333,0.46525000000000005,0.485
430,0.45125000000000004,0.49350000000000005,0.49824999999999997,0.4749999999999999,0.46525000000000005,0.48480000000000006
431,0.4505,0.49350000000000005,0.498,0.4746666666666666,0.46475,0.48419999999999996
432,0.44975000000000004,0.49324999999999997,0.49775,0.47433333333333333,0.46475,0.4835999999999999
433,0.449,0.493,0.49724999999999997,0.4736666666666666,0.46425,0.483
434,0.449,0.4925,0.49675,0.4726666666666666,0.46375,0.48260000000000003
435,0.44875,0.49225,0.4965,0.47233333333333327,0.4625,0.48260000000000003
436,0.44825,0.49174999999999996,0.496,0.4713333333333333,0.46225000000000005,0.4822
437,0.44725,0.49124999999999996,0.49474999999999997,0.4703333333333333,0.46225000000000005,0.48199999999999993
438,0.446,0.49075,0.49374999999999997,0.4696666666666666,0.46075000000000005,0.48100000000000004
439,0.4455,0.49024999999999996,0.49275,0.46799999999999997,0.4605,0.48040000000000005
440,0.445,0.48925,0.492,0.4663333333333333,0.4605,0.4795999999999999
441,0.445,0.48874999999999996,0.492,0.46599999999999997,0.46025,0.47939999999999994
442,0.445,0.48925,0.49150000000000005,0.4663333333333333,0.46025,0.47939999999999994
443,0.4445,0.489,0.49124999999999996,0.4663333333333333,0.46,0.47939999999999994
444,0.4445,0.4885,0.49024999999999996,0.4653333333333334,0.45975000000000005,0.479
445,0.4435,0.48749999999999993,0.49,0.465,0.45825,0.4784
446,0.44275,0.48724999999999996,0.489,0.464,0.45775000000000005,0.4772
447,0.44275,0.487,0.48824999999999996,0.463,0.45775000000000005,0.4766
448,0.4425,0.48675,0.488,0.463,0.45775000000000005,0.4766
449,0.44275,0.48675,0.4865,0.4633333333333334,0.45725,0.4766
450,0.44225000000000003,0.486,0.48575,0.4626666666666667,0.45725,0.47620000000000007
451,0.442,0.485,0.48475,0.4626666666666667,0.4565,0.4757999999999999
