wavelength,Heat Sweep 100C,Heat Sweep 150C,Heat Sweep 200C,Heat Sweep 230,Heat Sweep 50C,Heat Sweep RT
190,1.7207500000000002,1.7345000000000002,1.71125,1.6853333333333333,1.69475,1.7120000000000002
191,1.756,1.76325,1.76025,1.7273333333333334,1.72325,1.7396
192,1.77025,1.786,1.77075,1.7530000000000001,1.754,1.764
193,1.7915,1.79925,1.793,1.7696666666666665,1.7697500000000002,1.7742
194,1.80425,1.8112499999999998,1.8085,1.7766666666666666,1.7802499999999999,1.7824000000000002
195,1.80725,1.81225,1.81125,1.782,1.78725,1.7863999999999998
196,1.8085,1.8159999999999998,1.8177499999999998,1.790333333333333,1.79475,1.7939999999999998
197,1.818,1.8215,1.8219999999999998,1.798,1.7972499999999998,1.7974
198,1.81975,1.82275,1.828,1.804,1.798,1.7998
199,1.82,1.82275,1.82825,1.8063333333333336,1.7987499999999998,1.7993999999999999
200,1.80975,1.8185,1.8257500000000002,1.803,1.7927499999999998,1.7932
201,1.799,1.8092499999999998,1.8195000000000001,1.7906666666666666,1.78125,1.7845999999999997
202,1.788,1.799,1.81225,1.7826666666666666,1.7715,1.7730000000000001
203,1.77125,1.7854999999999999,1.8055,1.7753333333333332,1.7572499999999998,1.7614
204,1.7525,1.76525,1.78525,1.758,1.74,1.7426000000000001
205,1.728,1.7397500000000001,1.7625,1.7353333333333334,1.714,1.7152
206,1.6935,1.7077499999999999,1.7335,1.7060000000000002,1.6805,1.6804
207,1.65375,1.6677499999999998,1.70025,1.6703333333333334,1.64175,1.6396000000000002
208,1.6075,1.6225,1.6597499999999998,1.6306666666666667,1.59525,1.5942
209,1.5595,1.5705,1.61225,1.5816666666666668,1.54525,1.5441999999999998
210,1.5114999999999998,1.5222499999999999,1.5625,1.531,1.4945,1.4946
211,1.4555000000000002,1.4685000000000001,1.5119999999999998,1.4786666666666666,1.44325,1.4427999999999999
212,1.40225,1.418,1.46,1.4280000000000002,1.3915,1.3893999999999997
213,1.35275,1.36775,1.40975,1.3816666666666666,1.3405,1.3392000000000002
214,1.303,1.3165,1.3587500000000001,1.3313333333333333,1.291,1.2879999999999998
215,1.2845,1.3007499999999999,1.35175,1.3166666666666667,1.27025,1.2706
216,1.25225,1.26675,1.319,1.2856666666666667,1.24025,1.234
217,1.20875,1.2215,1.2767499999999998,1.2409999999999999,1.19675,1.1916
218,1.1635,1.17825,1.23225,1.1963333333333332,1.15175,1.1468
219,1.12575,1.136,1.1905000000000001,1.155,1.11075,1.1108
220,1.0855000000000001,1.09875,1.1515,1.1153333333333333,1.0707499999999999,1.0714000000000001
221,1.05025,1.0645000000000002,1.1125,1.08,1.038,1.035
222,1.01925,1.0335,1.0812500000000003,1.0473333333333332,1.0065,1.0048
223,0.9822500000000001,0.998,1.0355,1.0066666666666666,0.97,0.9676
224,0.9564999999999999,0.9734999999999999,1.008,0.98,0.945,0.9418
225,0.938,0.95575,0.9882500000000001,0.9606666666666666,0.9262500000000001,0.9238000000000002
226,0.9225000000000001,0.9417499999999999,0.9735,0.945,0.913,0.9103999999999999
227,0.9135,0.93275,0.9632499999999999,0.934,0.9032500000000001,0.9034000000000001
228,0.9117500000000001,0.9317500000000001,0.9599999999999999,0.9296666666666668,0.902,0.9034000000000001
229,0.919,0.93875,0.96175,0.9346666666666668,0.9095,0.907
230,0.9265000000000001,0.944,0.96675,0.9419999999999998,0.9135000000000001,0.9156000000000001
231,0.93325,0.9512499999999999,0.97,0.9486666666666667,0.92025,0.9202
232,0.9427499999999999,0.9595,0.979,0.9603333333333334,0.9285000000000001,0.9288000000000001
233,0.9505,0.9684999999999999,0.9877499999999999,0.9696666666666666,0.9382499999999999,0.9384
234,0.962,0.98025,0.999,0.98,0.9482499999999999,0.9490000000000001
235,0.9737499999999999,0.99225,1.012,0.9906666666666667,0.96075,0.9597999999999999
236,0.9855,1.0045,1.0225,1.0033333333333332,0.971,0.9728
237,0.996,1.0154999999999998,1.0364999999999998,1.0159999999999998,0.984,0.9848000000000001
238,1.0070000000000001,1.0262499999999999,1.0455,1.0276666666666667,0.9940000000000001,0.9948
239,1.0150000000000001,1.0337500000000002,1.0545,1.0363333333333333,1.0010000000000001,1.0026
240,1.01825,1.03775,1.0595,1.0423333333333333,1.00525,1.0074
241,1.01825,1.03925,1.0619999999999998,1.0439999999999998,1.0065,1.0086
242,1.01975,1.04025,1.0635,1.0439999999999998,1.008,1.0105999999999997
243,1.021,1.042,1.0665,1.0466666666666666,1.01,1.0146000000000002
244,1.021,1.0425,1.0667499999999999,1.0473333333333334,1.01,1.0134
245,1.01025,1.0295,1.0587499999999999,1.0446666666666669,0.9974999999999999,1.0006
246,0.99,1.0107499999999998,1.041,1.0250000000000001,0.97725,0.9816
247,0.97325,0.99575,1.0245,1.0043333333333333,0.9592499999999999,0.9663999999999999
248,0.9605,0.9835,1.00975,0.9923333333333333,0.949,0.9545999999999999
249,0.9492499999999999,0.971,0.9947499999999999,0.9796666666666667,0.93625,0.9416
250,0.9305000000000001,0.9527499999999999,0.9784999999999999,0.9656666666666668,0.9165,0.9214
251,0.907,0.92825,0.956,0.9436666666666667,0.8927499999999999,0.8952
252,0.88,0.90125,0.93025,0.9173333333333334,0.86625,0.8708
253,0.8567499999999999,0.879,0.9067500000000001,0.8923333333333333,0.843,0.851
254,0.83675,0.8605,0.8865000000000001,0.8726666666666668,0.8225,0.8320000000000001
255,0.8162499999999999,0.8379999999999999,0.8665,0.8533333333333334,0.8005,0.8110000000000002
256,0.7945000000000001,0.816,0.845,0.8323333333333333,0.7799999999999999,0.788
257,0.771,0.7927500000000001,0.822,0.8063333333333333,0.75825,0.7657999999999999
258,0.7477499999999999,0.7705,0.799,0.7840000000000001,0.7362500000000001,0.7436
259,0.7274999999999999,0.7505,0.777,0.761,0.716,0.7232
260,0.7117499999999999,0.7370000000000001,0.75875,0.7453333333333334,0.6994999999999999,0.7070000000000001
261,0.702,0.72875,0.745,0.7326666666666667,0.6912499999999999,0.6979999999999998
262,0.69775,0.7215,0.7389999999999999,0.727,0.6865000000000001,0.6926
263,0.692,0.7144999999999999,0.73275,0.7246666666666667,0.679,0.6872
264,0.6839999999999999,0.7054999999999999,0.7244999999999999,0.717,0.67,0.6794
265,0.674,0.69625,0.715,0.7056666666666667,0.6607500000000001,0.6700000000000002
266,0.6637500000000001,0.6862499999999999,0.706,0.695,0.6507499999999999,0.6608
267,0.65625,0.6787500000000001,0.6969999999999998,0.6843333333333333,0.6425,0.6526
268,0.651,0.6745,0.691,0.6779999999999999,0.63725,0.6479999999999999
269,0.647,0.671,0.68625,0.6733333333333333,0.633,0.6439999999999999
270,0.6427499999999999,0.666,0.682,0.6696666666666667,0.62875,0.6399999999999999
271,0.6365000000000001,0.66,0.6767500000000001,0.664,0.6225,0.6344000000000001
272,0.6335,0.6575000000000001,0.6719999999999999,0.6583333333333333,0.619,0.6314
273,0.63425,0.6585000000000001,0.6715,0.6576666666666666,0.61925,0.6325999999999999
274,0.63575,0.6595000000000001,0.67125,0.6596666666666667,0.6205,0.6336
275,0.63575,0.65925,0.67125,0.6593333333333334,0.61975,0.6336
276,0.632,0.65525,0.6685,0.658,0.617,0.6302
277,0.63025,0.6525,0.66525,0.654,0.61375,0.6284
278,0.62875,0.65225,0.6635,0.6533333333333333,0.6134999999999999,0.6275999999999999
279,0.62825,0.65225,0.6625,0.6523333333333333,0.612,0.6274
280,0.627,0.6495000000000001,0.6617500000000001,0.6513333333333334,0.61175,0.6268
281,0.6247499999999999,0.64625,0.66025,0.6486666666666667,0.60675,0.6234
282,0.62125,0.645,0.6567500000000001,0.648,0.6054999999999999,0.6214000000000001
283,0.6205,0.64475,0.65525,0.6456666666666667,0.60475,0.621
284,0.62075,0.64475,0.65525,0.6456666666666667,0.60475,0.6208
285,0.62025,0.644,0.65375,0.6446666666666667,0.6035,0.6208
286,0.6185,0.64125,0.65175,0.6436666666666667,0.6024999999999999,0.6188
287,0.61675,0.6405,0.6505000000000001,0.6393333333333334,0.60175,0.6188
288,0.61675,0.641,0.65,0.638,0.6012500000000001,0.6184000000000001
289,0.6164999999999999,0.64,0.6485000000000001,0.6386666666666667,0.5994999999999999,0.617
290,0.61375,0.63625,0.64525,0.6356666666666667,0.59375,0.6146
291,0.6105,0.63475,0.644,0.6336666666666667,0.5925,0.612
292,0.6105,0.63475,0.6425000000000001,0.6336666666666667,0.592,0.612
293,0.61025,0.6335,0.6425000000000001,0.633,0.59175,0.6113999999999999
294,0.60975,0.631,0.6415,0.6306666666666666,0.58925,0.6106
295,0.608,0.6295,0.63775,0.6263333333333333,0.5865,0.6093999999999999
296,0.606,0.6285000000000001,0.635,0.625,0.585,0.6062000000000001
297,0.6035,0.6275,0.6347499999999999,0.6243333333333333,0.5842499999999999,0.606
298,0.60375,0.62725,0.63425,0.6246666666666667,0.5834999999999999,0.6058
299,0.604,0.62725,0.634,0.625,0.58475,0.6068
300,0.60275,0.62725,0.63425,0.6243333333333333,0.585,0.6063999999999999
301,0.603,0.62575,0.633,0.623,0.58375,0.6054
302,0.60125,0.624,0.6315,0.6226666666666666,0.58275,0.6038
303,0.5992500000000001,0.6232500000000001,0.6299999999999999,0.622,0.5822499999999999,0.603
304,0.5987499999999999,0.623,0.627,0.621,0.57975,0.6015999999999999
305,0.59525,0.6194999999999999,0.6252500000000001,0.619,0.57575,0.597
306,0.5902499999999999,0.61625,0.6235,0.614,0.5722499999999999,0.5946
307,0.5884999999999999,0.61225,0.618,0.608,0.5685,0.5902000000000001
308,0.5842499999999999,0.608,0.61425,0.6046666666666666,0.5645,0.5871999999999999
309,0.5825,0.6067499999999999,0.6125,0.6016666666666667,0.5635,0.5862
310,0.58175,0.6067499999999999,0.61175,0.6013333333333333,0.5632499999999999,0.5862
311,0.5812499999999999,0.606,0.6107499999999999,0.601,0.5625,0.5856
312,0.57975,0.60525,0.61025,0.6006666666666667,0.56175,0.5845999999999999
313,0.5762499999999999,0.60175,0.6074999999999999,0.5973333333333333,0.558,0.5808
314,0.5732499999999999,0.599,0.60375,0.593,0.55525,0.5784
315,0.5742499999999999,0.6007499999999999,0.6034999999999999,0.5923333333333333,0.5565,0.5803999999999999
316,0.5752499999999999,0.6020000000000001,0.6044999999999999,0.5953333333333334,0.55725,0.5810000000000001
317,0.5734999999999999,0.60075,0.60375,0.5950000000000001,0.5562500000000001,0.579
318,0.56975,0.59625,0.6004999999999999,0.5910000000000001,0.5527500000000001,0.5756
319,0.5685,0.595,0.59775,0.589,0.5515,0.5744
320,0.56725,0.59475,0.59775,0.5883333333333333,0.5515,0.5742
321,0.5609999999999999,0.5884999999999999,0.595,0.585,0.5462500000000001,0.5696
322,0.5537500000000001,0.5812499999999999,0.5882499999999999,0.5763333333333333,0.5387500000000001,0.562
323,0.5517500000000001,0.5792499999999999,0.584,0.5716666666666667,0.5369999999999999,0.5608000000000001
324,0.5545,0.5825,0.585,0.5726666666666667,0.53925,0.5631999999999999
325,0.5565,0.5845,0.586,0.575,0.541,0.5648
326,0.55675,0.58475,0.5862499999999999,0.5763333333333333,0.54175,0.5650000000000001
327,0.556,0.58375,0.5862499999999999,0.5763333333333333,0.541,0.5644
328,0.5527500000000001,0.5812499999999999,0.584,0.5743333333333333,0.5385,0.5614000000000001
329,0.54825,0.5774999999999999,0.58,0.5706666666666665,0.5357500000000001,0.5574000000000001
330,0.5437500000000001,0.5727499999999999,0.5762499999999999,0.5656666666666667,0.5315000000000001,0.5534000000000001
331,0.54,0.5687499999999999,0.57275,0.5619999999999999,0.52825,0.5502
332,0.53925,0.5682499999999999,0.5715,0.56,0.527,0.55
333,0.54025,0.5694999999999999,0.5722499999999999,0.5603333333333335,0.528,0.5504
334,0.54,0.5700000000000001,0.5724999999999999,0.5613333333333334,0.52825,0.5502
335,0.53925,0.56775,0.57175,0.5606666666666668,0.5262500000000001,0.5492000000000001
336,0.53525,0.56475,0.569,0.5566666666666668,0.524,0.5458000000000001
337,0.5335000000000001,0.5627500000000001,0.5665,0.5540000000000002,0.5225,0.5442
338,0.53225,0.56225,0.56575,0.5536666666666666,0.52125,0.5434
339,0.5302500000000001,0.56,0.5634999999999999,0.5523333333333335,0.52,0.5414000000000001
340,0.5262500000000001,0.55625,0.5605,0.5486666666666667,0.51725,0.538
341,0.52175,0.552,0.557,0.5443333333333334,0.51325,0.5342
342,0.5185,0.5487500000000001,0.55375,0.54,0.5105000000000001,0.531
343,0.5185,0.549,0.5527500000000001,0.539,0.5105000000000001,0.5314
344,0.52125,0.55125,0.55375,0.5403333333333334,0.51325,0.5344
345,0.5235,0.5530000000000002,0.55625,0.544,0.5145,0.5364000000000001
346,0.52275,0.5527500000000001,0.5565,0.5446666666666667,0.5145,0.5356
347,0.51925,0.5495000000000001,0.55425,0.5416666666666667,0.512,0.5314
348,0.51525,0.546,0.5505,0.5380000000000001,0.5087499999999999,0.5282
349,0.513,0.54375,0.5485,0.5356666666666667,0.50675,0.5278
350,0.51,0.5407500000000001,0.5475000000000001,0.5336666666666667,0.50375,0.5244
351,0.50725,0.5385,0.544,0.5296666666666666,0.50225,0.5226
352,0.50475,0.536,0.542,0.5283333333333333,0.5015000000000001,0.522
353,0.504,0.535,0.5415000000000001,0.5266666666666667,0.50125,0.5196
354,0.50275,0.5325000000000001,0.54025,0.5263333333333334,0.49949999999999994,0.519
355,0.50175,0.532,0.539,0.5236666666666667,0.49875,0.5178
356,0.502,0.5327500000000001,0.539,0.524,0.49924999999999997,0.5204
357,0.50275,0.5327500000000001,0.5395000000000001,0.525,0.4995,0.5206
358,0.501,0.5325,0.53925,0.524,0.498,0.5176000000000001
359,0.49775,0.5305,0.538,0.5206666666666667,0.49725,0.5154
360,0.5015000000000001,0.5345,0.5392500000000001,0.5203333333333333,0.49975,0.5178
361,0.5087499999999999,0.5412500000000001,0.5417500000000001,0.529,0.50475,0.5232000000000001
362,0.51225,0.54225,0.5437500000000001,0.537,0.51025,0.5236000000000001
363,0.51225,0.5415000000000001,0.5445,0.537,0.50925,0.5234
364,0.5105,0.54025,0.5427500000000001,0.5336666666666667,0.5065,0.522
365,0.50475,0.53825,0.541,0.529,0.50575,0.5198
366,0.5025000000000001,0.5365,0.5402500000000001,0.527,0.503,0.5192
367,0.501,0.5335000000000001,0.53925,0.526,0.501,0.5164
368,0.4975,0.5305,0.53625,0.5236666666666667,0.4985,0.515
369,0.49525,0.52725,0.534,0.52,0.49625,0.513
370,0.49449999999999994,0.526,0.5335,0.5183333333333334,0.49524999999999997,0.5120000000000001
371,0.494,0.52575,0.533,0.5176666666666667,0.49475,0.5118
372,0.49124999999999996,0.5245,0.53125,0.5156666666666667,0.49375,0.5102
373,0.4885,0.52175,0.5305,0.5123333333333333,0.49225,0.5086
374,0.486,0.5195000000000001,0.5285,0.5106666666666667,0.491,0.507
375,0.486,0.5195000000000001,0.5285,0.5093333333333333,0.49049999999999994,0.5067999999999999
376,0.48975,0.52275,0.5305,0.511,0.493,0.5105999999999999
377,0.49475,0.5285000000000001,0.5347500000000001,0.5156666666666667,0.49724999999999997,0.5136000000000001
378,0.49775,0.53125,0.53625,0.521,0.499,0.5152
379,0.49724999999999997,0.53075,0.5365,0.5216666666666666,0.49950000000000006,0.5154
380,0.492,0.5285,0.536,0.52,0.49925,0.5134000000000001
381,0.4895,0.5265,0.53525,0.517,0.49675,0.5118
382,0.48924999999999996,0.5255000000000001,0.5345,0.5163333333333333,0.49650000000000005,0.5118
383,0.48975,0.5265000000000001,0.5347500000000001,0.516,0.49624999999999997,0.5118
384,0.49024999999999996,0.5265000000000001,0.5347500000000001,0.5163333333333333,0.49675,0.5120000000000001
385,0.49024999999999996,0.52675,0.5347500000000001,0.5163333333333333,0.49675,0.5132
386,0.49,0.52675,0.5355000000000001,0.5163333333333333,0.49775,0.5132
387,0.48975,0.52825,0.536,0.5163333333333333,0.49775,0.5136000000000001
388,0.48875,0.5265,0.5355000000000001,0.5163333333333333,0.498,0.5138
389,0.48574999999999996,0.52475,0.5347500000000001,0.5146666666666667,0.49724999999999997,0.512
390,0.47675,0.51325,0.524,0.5016666666666667,0.487,0.5014
391,0.47225,0.50975,0.51925,0.49899999999999994,0.48375,0.49960000000000004
392,0.47125,0.509,0.5175000000000001,0.49833333333333335,0.48174999999999996,0.4992000000000001
393,0.47125,0.50875,0.516,0.49833333333333335,0.481,0.4984
394,0.47125,0.50875,0.5155,0.49766666666666665,0.481,0.4981999999999999
395,0.47075,0.5085000000000001,0.51575,0.49700000000000005,0.48,0.4974
396,0.46950000000000003,0.5075000000000001,0.51475,0.496,0.47875,0.4952
397,0.46799999999999997,0.505,0.51275,0.49366666666666664,0.47775,0.49339999999999995
398,0.46625,0.50425,0.5112500000000001,0.49300000000000005,0.47675,0.493
399,0.46575,0.504,0.5112500000000001,0.4923333333333333,0.47574999999999995,0.49260000000000004
400,0.46449999999999997,0.50275,0.5105,0.49033333333333334,0.47525,0.4915999999999999
401,0.4615,0.50225,0.50875,0.48900000000000005,0.4735,0.4901999999999999
402,0.46075,0.50025,0.5075000000000001,0.4876666666666667,0.473,0.48979999999999996
403,0.46025000000000005,0.49949999999999994,0.5075000000000001,0.48633333333333334,0.47225,0.4894
404,0.4605,0.5002500000000001,0.5075000000000001,0.48633333333333334,0.4725,0.48999999999999994
405,0.46075,0.5015000000000001,0.508,0.48633333333333334,0.4735,0.4904
406,0.46075,0.5015000000000001,0.508,0.48733333333333334,0.473,0.49060000000000004
407,0.45975,0.50125,0.50775,0.48733333333333334,0.47274999999999995,0.4908
408,0.459,0.5005000000000001,0.50675,0.486,0.47150000000000003,0.4896
409,0.45875000000000005,0.5,0.50675,0.48500000000000004,0.47150000000000003,0.48900000000000005
410,0.45775,0.5002500000000001,0.50675,0.48500000000000004,0.47150000000000003,0.4892
411,0.4575,0.5002500000000001,0.506,0.48533333333333334,0.47150000000000003,0.4896
412,0.45725,0.5002500000000001,0.5057499999999999,0.48533333333333334,0.47150000000000003,0.4894
413,0.45675000000000004,0.499,0.5057499999999999,0.48299999999999993,0.47050000000000003,0.488
414,0.45625,0.4985,0.50525,0.482,0.47,0.48760000000000003
415,0.455,0.49824999999999997,0.5045000000000001,0.48166666666666663,0.46925000000000006,0.4864
416,0.4545,0.49674999999999997,0.504,0.48066666666666663,0.46875,0.48579999999999995
417,0.4525,0.496,0.50375,0.47933333333333333,0.46775,0.4856
418,0.45075,0.49424999999999997,0.5022500000000001,0.47766666666666663,0.46699999999999997,0.4837999999999999
419,0.44925,0.493,0.50175,0.47533333333333333,0.46525,0.4835999999999999
420,0.449,0.49274999999999997,0.50125,0.4746666666666666,0.46475,0.48339999999999994
421,0.4495,0.49350000000000005,0.501,0.4746666666666666,0.46475,0.484
422,0.44975000000000004,0.49375,0.5005000000000001,0.4746666666666666,0.4645,0.4842000000000001
423,0.44975000000000004,0.49375,0.50025,0.4746666666666666,0.4645,0.484
424,0.44975000000000004,0.49375,0.49975,0.4746666666666666,0.46475,0.4842000000000001
425,0.44975000000000004,0.49375,0.49950000000000006,0.4749999999999999,0.4645,0.4842000000000001
426,0.45025,0.49375,0.49950000000000006,0.4756666666666667,0.46475,0.4842000000000001
427,0.45075000000000004,0.49375,0.49950000000000006,0.47533333333333333,0.465,0.485
428,0.45075000000000004,0.49375,0.49924999999999997,0.47533333333333333,0.46525000000000005,0.485
429,0.451,0.49350000000000005,0.4985,0.47533333333333333,0.46525000000000005,0.485
430,0.45125000000000004,0.49350000000000005,0.49824999999999997,0.4749999999999999,0.46525000000000005,0.48480000000000006
431,0.4505,0.49350000000000005,0.498,0.4746666666666666,0.46475,0.48419999999999996
432,0.44975000000000004,0.49324999999999997,0.49775,0.47433333333333333,0.46475,0.4835999999999999
433,0.449,0.493,0.49724999999999997,0.4736666666666666,0.46425,0.483
434,0.449,0.4925,0.49675,0.4726666666666666,0.46375,0.48260000000000003
435,0.44875,0.49225,0.4965,0.47233333333333327,0.4625,0.48260000000000003
436,0.44825,0.49174999999999996,0.496,0.4713333333333333,0.46225000000000005,0.4822
437,0.44725,0.49124999999999996,0.49474999999999997,0.4703333333333333,0.46225000000000005,0.48199999999999993
438,0.446,0.49075,0.49374999999999997,0.4696666666666666,0.46075000000000005,0.48100000000000004
439,0.4455,0.49024999999999996,0.49275,0.46799999999999997,0.4605,0.48040000000000005
440,0.445,0.48925,0.492,0.4663333333333333,0.4605,0.4795999999999999
441,0.445,0.48874999999999996,0.492,0.46599999999999997,0.46025,0.47939999999999994
442,0.445,0.48925,0.49150000000000005,0.4663333333333333,0.46025,0.47939999999999994
443,0.4445,0.489,0.49124999999999996,0.4663333333333333,0.46,0.47939999999999994
444,0.4445,0.4885,0.49024999999999996,0.4653333333333334,0.45975000000000005,0.479
445,0.4435,0.48749999999999993,0.49,0.465,0.45825,0.4784
446,0.44275,0.48724999999999996,0.489,0.464,0.45775000000000005,0.4772
447,0.44275,0.487,0.48824999999999996,0.463,0.45775000000000005,0.4766
448,0.4425,0.48675,0.488,0.463,0.45775000000000005,0.4766
449,0.44275,0.48675,0.4865,0.4633333333333334,0.45725,0.4766
450,0.44225000000000003,0.486,0.48575,0.4626666666666667,0.45725,0.47620000000000007
451,0.442,0.485,0.48475,0.4626666666666667,0.4565,0.4757999999999999
452,0.44175000000000003,0.48474999999999996,0.48424999999999996,0.46166666666666667,0.4555,0.4748
453,0.44125000000000003,0.48474999999999996,0.48375,0.46166666666666667,0.45525000000000004,0.4746
454,0.4415,0.48375,0.4825,0.4613333333333334,0.45525000000000004,0.47400000000000003
455,0.441,0.4825,0.48175,0.4606666666666667,0.4545,0.4734
456,0.44,0.48224999999999996,0.481,0.45933333333333337,0.45375,0.47219999999999995
457,0.43875,0.4805,0.47950000000000004,0.457,0.45275,0.471
458,0.4365,0.479,0.47850000000000004,0.455,0.45025000000000004,0.4694
459,0.43524999999999997,0.47774999999999995,0.47774999999999995,0.453,0.449,0.4686
460,0.43524999999999997,0.478,0.47724999999999995,0.4523333333333333,0.449,0.4683999999999999
461,0.43625,0.47824999999999995,0.4765,0.45333333333333337,0.449,0.46900000000000003
462,0.4375,0.4785,0.4755,0.45366666666666666,0.44925000000000004,0.4692
463,0.43725,0.47775,0.47425,0.45366666666666666,0.4485,0.46880000000000005
464,0.436,0.47674999999999995,0.4734999999999999,0.453,0.44825,0.46820000000000006
465,0.43525,0.4754999999999999,0.47250000000000003,0.45166666666666666,0.44725000000000004,0.46719999999999995
466,0.435,0.47450000000000003,0.47175,0.451,0.4465,0.466
467,0.435,0.47424999999999995,0.47050000000000003,0.4503333333333333,0.44625,0.465
468,0.43475,0.47375,0.4694999999999999,0.4503333333333333,0.445,0.4648
469,0.4345,0.47275,0.4685,0.44966666666666666,0.4445,0.4648
470,0.43374999999999997,0.47175,0.46725000000000005,0.449,0.44375000000000003,0.4640000000000001
471,0.43224999999999997,0.47025,0.46649999999999997,0.44733333333333336,0.4425,0.4626
472,0.4315,0.469,0.46575,0.44533333333333336,0.44075000000000003,0.46160000000000007
473,0.431,0.46825,0.4645,0.445,0.44,0.46020000000000005
474,0.43024999999999997,0.46775,0.4625,0.444,0.438,0.4586
475,0.429,0.46675,0.4615,0.4423333333333333,0.43675,0.4572
476,0.42775,0.46499999999999997,0.46025000000000005,0.44133333333333336,0.43575,0.45520000000000005
477,0.42674999999999996,0.46375,0.459,0.43966666666666665,0.43474999999999997,0.4542
478,0.4255,0.4625,0.458,0.438,0.43325,0.45360000000000006
479,0.4245,0.46025000000000005,0.4565,0.437,0.4315,0.4518000000000001
480,0.421,0.457,0.454,0.435,0.42825,0.44980000000000003
481,0.4165,0.45275,0.45075000000000004,0.4306666666666667,0.4235,0.4452
482,0.41225,0.449,0.4475,0.42533333333333334,0.4195,0.4412
483,0.411,0.4475,0.44625,0.4223333333333333,0.4185,0.44000000000000006
484,0.41525,0.451,0.4475,0.42366666666666664,0.42174999999999996,0.44220000000000004
485,0.41824999999999996,0.45325,0.448,0.4286666666666667,0.4245,0.44400000000000006
486,0.41824999999999996,0.452,0.44625,0.42933333333333334,0.42375,0.44299999999999995
487,0.41725,0.45125,0.44525000000000003,0.42766666666666664,0.423,0.4418
488,0.4175,0.452,0.44525000000000003,0.42766666666666664,0.423,0.442
489,0.41725,0.45125000000000004,0.44475000000000003,0.42766666666666664,0.42225,0.442
490,0.41475,0.4485,0.442,0.42533333333333334,0.41924999999999996,0.43920000000000003
491,0.414,0.447,0.44075,0.42366666666666664,0.418,0.43820000000000003
492,0.41475,0.44725,0.44075,0.424,0.41874999999999996,0.43879999999999997
493,0.41625,0.4475,0.43925,0.425,0.41925,0.43879999999999997
494,0.41475,0.44625,0.4365,0.4243333333333333,0.417,0.4372
495,0.41325,0.4435,0.433,0.4226666666666667,0.4135,0.4344
496,0.41125,0.44175000000000003,0.4315,0.42,0.412,0.4332
497,0.41075,0.441,0.431,0.41933333333333334,0.4115,0.43279999999999996
498,0.41075,0.4405,0.4295,0.419,0.41125,0.43220000000000003
499,0.41050000000000003,0.44,0.42875,0.4186666666666667,0.4105,0.43199999999999994
500,0.4095,0.439,0.42725,0.4183333333333333,0.40975,0.43100000000000005
501,0.40825,0.43775000000000003,0.42575,0.417,0.40775,0.4298
502,0.40599999999999997,0.43575,0.4245,0.41566666666666663,0.40575,0.42779999999999996
503,0.4045,0.43475,0.42325,0.4146666666666667,0.405,0.4266
504,0.40349999999999997,0.434,0.42274999999999996,0.41333333333333333,0.404,0.4262
505,0.402,0.43324999999999997,0.42174999999999996,0.4126666666666667,0.40275,0.42479999999999996
506,0.4005,0.43175,0.42075,0.41133333333333333,0.401,0.42379999999999995
507,0.399,0.43025,0.419,0.40900000000000003,0.39925,0.4222
508,0.39775000000000005,0.42874999999999996,0.418,0.4066666666666667,0.398,0.42139999999999994
509,0.3965,0.42825,0.41724999999999995,0.4063333333333334,0.39625,0.4202
510,0.39625,0.4275,0.41574999999999995,0.405,0.3955,0.4192
511,0.39575000000000005,0.427,0.415,0.4046666666666667,0.39475000000000005,0.4184
512,0.39575000000000005,0.4265,0.414,0.4046666666666667,0.39449999999999996,0.418
513,0.3955000000000001,0.4255,0.4135,0.4043333333333334,0.394,0.4178
514,0.39449999999999996,0.4245,0.4125,0.403,0.392,0.4162
515,0.39175000000000004,0.422,0.41000000000000003,0.4013333333333334,0.38950000000000007,0.4144
516,0.3895,0.4205,0.40725,0.3983333333333334,0.388,0.41319999999999996
517,0.38949999999999996,0.4195,0.407,0.39733333333333337,0.38749999999999996,0.413
518,0.39049999999999996,0.41975,0.40725,0.39733333333333337,0.38825000000000004,0.4128
519,0.39125,0.41975,0.407,0.39799999999999996,0.38850000000000007,0.4128
520,0.391,0.4195,0.40549999999999997,0.3983333333333334,0.388,0.4124
521,0.38925,0.4175,0.404,0.39733333333333337,0.38549999999999995,0.4104
522,0.38625,0.416,0.4015,0.3953333333333333,0.38249999999999995,0.4082
523,0.38375000000000004,0.41274999999999995,0.40025,0.3913333333333333,0.38,0.4058
524,0.3815,0.41000000000000003,0.398,0.38833333333333336,0.378,0.403
525,0.37975000000000003,0.40825,0.39725,0.387,0.37549999999999994,0.4006
526,0.37725,0.40675,0.39425,0.38366666666666666,0.3725,0.39980000000000004
527,0.3775,0.40750000000000003,0.39325,0.3833333333333333,0.373,0.4002
528,0.38249999999999995,0.4105,0.39425,0.3873333333333333,0.37750000000000006,0.40259999999999996
529,0.38675000000000004,0.41274999999999995,0.39549999999999996,0.39166666666666666,0.38075000000000003,0.404
530,0.38549999999999995,0.4115,0.39375000000000004,0.39200000000000007,0.37925,0.40380000000000005
531,0.38175000000000003,0.40825,0.39125,0.3873333333333333,0.37525000000000003,0.4006
532,0.38149999999999995,0.40775,0.39125,0.38633333333333336,0.375,0.4002
533,0.38175000000000003,0.40875,0.39149999999999996,0.3873333333333333,0.37549999999999994,0.4002
534,0.38175000000000003,0.40850000000000003,0.39049999999999996,0.3873333333333333,0.37525,0.39960000000000007
535,0.3805,0.40800000000000003,0.389,0.38599999999999995,0.373,0.3988
536,0.38025,0.40725,0.38875000000000004,0.38533333333333336,0.37174999999999997,0.3988
537,0.37825,0.40475,0.38675000000000004,0.38433333333333336,0.37024999999999997,0.39699999999999996
538,0.37374999999999997,0.40075000000000005,0.38375,0.381,0.36524999999999996,0.39320000000000005
539,0.37,0.39725,0.38050000000000006,0.37600000000000006,0.36175,0.3902
540,0.36974999999999997,0.39725,0.38025000000000003,0.375,0.36250000000000004,0.3898
541,0.37324999999999997,0.399,0.38175000000000003,0.37566666666666665,0.365,0.39180000000000004
542,0.3765,0.401,0.382,0.37966666666666665,0.36725,0.3928
543,0.37675000000000003,0.402,0.38125,0.38033333333333336,0.36725,0.394
544,0.375,0.401,0.38,0.38033333333333336,0.36524999999999996,0.3928000000000001
545,0.3735,0.3995,0.3785,0.37833333333333335,0.364,0.39180000000000004
546,0.37325,0.399,0.37775000000000003,0.37766666666666665,0.36374999999999996,0.3912
547,0.374,0.398,0.37775000000000003,0.37666666666666665,0.36374999999999996,0.391
548,0.37374999999999997,0.3975,0.37650000000000006,0.37766666666666665,0.36325,0.3908
549,0.37150000000000005,0.395,0.375,0.377,0.36025,0.38900000000000007
550,0.3695,0.3935,0.37324999999999997,0.37399999999999994,0.35875,0.3864
551,0.36750000000000005,0.39225,0.37174999999999997,0.37166666666666665,0.357,0.3844
552,0.36750000000000005,0.3915,0.3715,0.3706666666666667,0.357,0.3844
553,0.36724999999999997,0.3915,0.37124999999999997,0.3713333333333333,0.35674999999999996,0.384
554,0.36724999999999997,0.39125000000000004,0.37024999999999997,0.3713333333333333,0.356,0.38380000000000003
555,0.366,0.39,0.36850000000000005,0.36933333333333335,0.35524999999999995,0.3832
556,0.3645,0.389,0.3675,0.369,0.35375,0.3824
557,0.36324999999999996,0.38875000000000004,0.36724999999999997,0.36800000000000005,0.35225,0.381
558,0.362,0.3875,0.3655,0.3666666666666667,0.351,0.38
559,0.3605,0.38649999999999995,0.364,0.365,0.34975,0.37820000000000004
560,0.356,0.38175000000000003,0.359,0.36033333333333334,0.34325,0.3752000000000001
561,0.3544999999999999,0.37975,0.35424999999999995,0.35833333333333334,0.3405,0.3726
562,0.3535,0.37925000000000003,0.353,0.35766666666666663,0.339,0.372
563,0.35100000000000003,0.378,0.351,0.35666666666666663,0.33675,0.36960000000000004
564,0.34975,0.37625,0.34950000000000003,0.3546666666666667,0.33475,0.3684
565,0.35,0.3755,0.34924999999999995,0.35266666666666663,0.3345,0.36879999999999996
566,0.35025,0.3755,0.34924999999999995,0.35233333333333333,0.33475000000000005,0.369
567,0.35050000000000003,0.3755,0.349,0.35266666666666663,0.33475000000000005,0.36879999999999996
568,0.34950000000000003,0.37424999999999997,0.34775,0.35266666666666663,0.33375,0.3682
569,0.348,0.37275,0.347,0.351,0.33275,0.3668
570,0.347,0.372,0.34625,0.34933333333333333,0.33175,0.36579999999999996
571,0.34675,0.37124999999999997,0.34550000000000003,0.34933333333333333,0.331,0.3656
572,0.34675,0.3715,0.34550000000000003,0.34933333333333333,0.33125000000000004,0.3654
573,0.347,0.3715,0.34524999999999995,0.3496666666666666,0.33125000000000004,0.365
574,0.34675,0.3715,0.34475,0.34933333333333333,0.33125000000000004,0.365
575,0.34675,0.37125,0.34450000000000003,0.34933333333333333,0.33075000000000004,0.365
576,0.34750000000000003,0.37124999999999997,0.3445,0.3496666666666666,0.33125000000000004,0.3648
577,0.34775,0.37124999999999997,0.34375,0.3496666666666666,0.33125000000000004,0.3646
578,0.3475,0.37049999999999994,0.3435,0.34933333333333333,0.331,0.3642
579,0.34575,0.37024999999999997,0.34175,0.34833333333333333,0.3295,0.3632
580,0.34474999999999995,0.369,0.3395,0.3466666666666667,0.32775000000000004,0.36239999999999994
581,0.34425,0.3675,0.3395,0.3459999999999999,0.32675,0.36160000000000003
582,0.34299999999999997,0.36675,0.3395,0.3453333333333333,0.32625,0.3606
583,0.3425,0.36624999999999996,0.3385,0.3446666666666666,0.32525000000000004,0.35979999999999995
584,0.3415,0.36550000000000005,0.33725000000000005,0.3443333333333333,0.3245,0.359
585,0.34075,0.36425,0.337,0.343,0.32375,0.35879999999999995
586,0.3395,0.36324999999999996,0.33625,0.342,0.32225,0.35760000000000003
587,0.33825000000000005,0.363,0.33525000000000005,0.341,0.3215,0.35679999999999995
588,0.33775000000000005,0.36224999999999996,0.3345,0.33966666666666673,0.3205,0.3566
589,0.33775000000000005,0.36175,0.33425000000000005,0.339,0.32025,0.356
590,0.33775000000000005,0.36175,0.334,0.339,0.32,0.356
591,0.33775000000000005,0.36150000000000004,0.3335,0.339,0.3195,0.35559999999999997
592,0.33575000000000005,0.36,0.33175,0.339,0.31925000000000003,0.35479999999999995
593,0.33375000000000005,0.35875,0.33125000000000004,0.337,0.31725,0.353
594,0.33275000000000005,0.3575,0.33075,0.3353333333333333,0.316,0.35159999999999997
595,0.3325,0.357,0.33,0.334,0.3155,0.3508
596,0.33225000000000005,0.357,0.32975,0.334,0.3155,0.35159999999999997
597,0.33425000000000005,0.35775,0.33025,0.336,0.3165,0.35259999999999997
598,0.335,0.35824999999999996,0.33025,0.337,0.317,0.3529999999999999
599,0.33475,0.358,0.3295,0.3373333333333333,0.31675000000000003,0.3522
600,0.333,0.35724999999999996,0.3285,0.3356666666666667,0.315,0.351
601,0.33,0.35475,0.32675,0.3333333333333333,0.313,0.3496
602,0.3275,0.35324999999999995,0.325,0.3316666666666667,0.31124999999999997,0.34819999999999995
603,0.32675,0.3525,0.3245,0.329,0.3105,0.34759999999999996
604,0.3275,0.35325,0.32475000000000004,0.329,0.31074999999999997,0.348
605,0.3285,0.35375,0.32475000000000004,0.33,0.31124999999999997,0.3484
606,0.33,0.354,0.32475000000000004,0.3316666666666667,0.31174999999999997,0.3484
607,0.3295,0.35350000000000004,0.323,0.331,0.3115,0.3474
608,0.328,0.35175,0.32275,0.329,0.31124999999999997,0.34659999999999996
609,0.32725,0.35175,0.32275,0.329,0.3105,0.34639999999999993
610,0.328,0.352,0.32275,0.3296666666666667,0.31025,0.34619999999999995
611,0.3295,0.352,0.32275,0.3296666666666667,0.31074999999999997,0.3464
612,0.3295,0.352,0.322,0.33,0.31074999999999997,0.346
613,0.32875,0.35175,0.3215,0.3296666666666667,0.30975,0.3458
614,0.3275,0.35124999999999995,0.32075,0.3293333333333333,0.3095,0.3456
615,0.327,0.35050000000000003,0.32025,0.32833333333333337,0.30775,0.345
616,0.32575000000000004,0.34975,0.31975000000000003,0.3273333333333333,0.3075,0.3438
617,0.3255,0.3485,0.319,0.32666666666666666,0.3065,0.3436
618,0.32525,0.348,0.31825,0.32633333333333336,0.306,0.34299999999999997
619,0.32475000000000004,0.34775,0.318,0.3256666666666667,0.3055,0.3423999999999999
620,0.32375,0.347,0.317,0.325,0.30425,0.34219999999999995
621,0.32225000000000004,0.34625000000000006,0.3165,0.324,0.304,0.34140000000000004
622,0.32225000000000004,0.34575,0.316,0.3236666666666667,0.3035,0.3404
623,0.321,0.34525,0.3155,0.32233333333333336,0.302,0.3396
624,0.3195,0.34375,0.31475000000000003,0.32066666666666666,0.3005,0.3390000000000001
625,0.31875000000000003,0.34275,0.3145,0.3193333333333333,0.3005,0.33840000000000003
626,0.31875000000000003,0.34275,0.3145,0.3193333333333333,0.3005,0.33840000000000003
627,0.3195,0.34324999999999994,0.31425000000000003,0.3193333333333333,0.301,0.33840000000000003
628,0.31975000000000003,0.3435,0.314,0.32066666666666666,0.301,0.33840000000000003
629,0.31975000000000003,0.34299999999999997,0.3135,0.32066666666666666,0.301,0.33840000000000003
630,0.31975000000000003,0.34299999999999997,0.3125,0.32066666666666666,0.3005,0.338
631,0.31925,0.34199999999999997,0.312,0.32,0.29975,0.337
632,0.318,0.3415,0.3115,0.31866666666666665,0.299,0.33680000000000004
633,0.3175,0.34125,0.311,0.31866666666666665,0.298,0.33660000000000007
634,0.31725,0.34075,0.3105,0.3176666666666667,0.298,0.3362
635,0.3175,0.34025000000000005,0.31025,0.3176666666666667,0.298,0.3356
636,0.31725,0.33999999999999997,0.31,0.3176666666666667,0.2975,0.33520000000000005
637,0.31725,0.33975,0.30924999999999997,0.3173333333333333,0.29674999999999996,0.33480000000000004
638,0.3165,0.33875,0.309,0.3173333333333333,0.29674999999999996,0.33460000000000006
639,0.3165,0.3385,0.30875,0.31666666666666665,0.29624999999999996,0.334
640,0.3155,0.338,0.30825,0.3156666666666667,0.29575,0.3338
641,0.31525,0.33775000000000005,0.30675,0.3153333333333333,0.295,0.33280000000000004
642,0.31425000000000003,0.33675,0.30675,0.31466666666666665,0.29425,0.3322
643,0.31325,0.336,0.3055,0.3133333333333333,0.29324999999999996,0.3322
644,0.313,0.336,0.30474999999999997,0.313,0.293,0.3316
645,0.31224999999999997,0.335,0.30425,0.31233333333333335,0.29225,0.33060000000000006
646,0.31174999999999997,0.3345,0.304,0.31233333333333335,0.2915,0.33060000000000006
647,0.31174999999999997,0.33425,0.30375,0.3113333333333333,0.29124999999999995,0.32999999999999996
648,0.31125,0.3335,0.303,0.31066666666666665,0.29074999999999995,0.3294
649,0.3105,0.33325,0.3025,0.31033333333333335,0.29074999999999995,0.32920000000000005
650,0.31024999999999997,0.33275,0.302,0.3096666666666667,0.29,0.32860000000000006
651,0.3095,0.332,0.302,0.3093333333333333,0.2895,0.3278
652,0.30925,0.33175,0.30124999999999996,0.309,0.28924999999999995,0.3278
653,0.30925,0.33175,0.301,0.30866666666666664,0.289,0.3276
654,0.309,0.331,0.30025,0.30866666666666664,0.28875,0.3274
655,0.3085,0.33025000000000004,0.29974999999999996,0.30833333333333335,0.288,0.32720000000000005
656,0.30675,0.3295,0.29924999999999996,0.307,0.28650000000000003,0.3256
657,0.3055,0.328,0.29825,0.3053333333333333,0.28525,0.3242
658,0.3045,0.32725,0.2975,0.304,0.28475,0.3238
659,0.3045,0.3275,0.29825,0.304,0.28500000000000003,0.3242
660,0.30574999999999997,0.3275,0.2985,0.30466666666666664,0.28525,0.32460000000000006
661,0.307,0.328,0.2985,0.306,0.28625,0.32460000000000006
662,0.30774999999999997,0.328,0.2975,0.306,0.28650000000000003,0.32460000000000006
663,0.30774999999999997,0.32775000000000004,0.29675,0.306,0.28675,0.32460000000000006
664,0.3075,0.32775000000000004,0.29625,0.3056666666666667,0.2855,0.3242
665,0.3065,0.32725,0.29574999999999996,0.3056666666666667,0.285,0.3238
666,0.30574999999999997,0.3265,0.2955,0.304,0.28475,0.323
667,0.30475,0.326,0.295,0.3036666666666667,0.28374999999999995,0.3224
668,0.30424999999999996,0.32525,0.29425,0.303,0.28275,0.3222
669,0.304,0.325,0.29425,0.30266666666666664,0.28275,0.3216
670,0.3035,0.3245,0.29425,0.30266666666666664,0.2825,0.3216
671,0.30374999999999996,0.32425000000000004,0.2935,0.30233333333333334,0.2825,0.3214
672,0.3035,0.324,0.29324999999999996,0.3016666666666667,0.28225,0.32100000000000006
673,0.30275,0.3235,0.29274999999999995,0.3016666666666667,0.282,0.3204
674,0.30275,0.323,0.29224999999999995,0.3016666666666667,0.28150000000000003,0.3204
675,0.30224999999999996,0.32275,0.292,0.30066666666666664,0.28099999999999997,0.3196
676,0.3015,0.322,0.291,0.2996666666666667,0.27975,0.31920000000000004
677,0.3005,0.3215,0.291,0.299,0.279,0.3184
678,0.29925,0.321,0.29,0.2976666666666667,0.27775000000000005,0.31779999999999997
679,0.299,0.3205,0.29,0.29666666666666663,0.27725,0.317
680,0.2985,0.3205,0.28974999999999995,0.29633333333333334,0.27725,0.3168
681,0.29874999999999996,0.32025000000000003,0.2895,0.29633333333333334,0.27725,0.31700000000000006
682,0.2995,0.32025000000000003,0.28924999999999995,0.29666666666666663,0.27725,0.31700000000000006
683,0.29974999999999996,0.32025000000000003,0.2885,0.297,0.2775,0.31700000000000006
684,0.29974999999999996,0.32025000000000003,0.28775,0.2976666666666667,0.27775000000000005,0.31700000000000006
685,0.29925,0.32025000000000003,0.28724999999999995,0.297,0.2775,0.3168
686,0.299,0.32,0.28625,0.29666666666666663,0.277,0.3162
687,0.298,0.31875000000000003,0.28625,0.29633333333333334,0.2765,0.3154
688,0.29774999999999996,0.31875000000000003,0.28625,0.2953333333333333,0.2765,0.3154
689,0.29774999999999996,0.318,0.2865,0.2953333333333333,0.27575000000000005,0.3148
690,0.29774999999999996,0.318,0.28574999999999995,0.29466666666666663,0.2755,0.3144
691,0.297,0.3175,0.28524999999999995,0.29433333333333334,0.275,0.3144
692,0.29624999999999996,0.31675000000000003,0.28475,0.29433333333333334,0.27425,0.3136
693,0.29624999999999996,0.31575,0.28450000000000003,0.2933333333333333,0.27375000000000005,0.31320000000000003
694,0.29525,0.3155,0.28425,0.29233333333333333,0.273,0.3126
695,0.2935,0.31425,0.2835,0.291,0.27175000000000005,0.3122
696,0.29175,0.313,0.28324999999999995,0.29,0.2705,0.3108
697,0.29025,0.311,0.283,0.2886666666666666,0.2695,0.3096
698,0.29,0.3105,0.28250000000000003,0.2873333333333333,0.26925,0.3094
699,0.29025,0.31075,0.28325,0.2873333333333333,0.2695,0.3094
700,0.2925,0.3115,0.28325,0.2886666666666666,0.27025,0.3094
701,0.294,0.312,0.28275,0.291,0.272,0.3096
702,0.29474999999999996,0.3125,0.28175,0.291,0.27225,0.3096
703,0.2945,0.31225,0.2805,0.2913333333333333,0.2725,0.3096
704,0.29424999999999996,0.312,0.28025,0.29066666666666663,0.27175000000000005,0.3096
705,0.29324999999999996,0.31124999999999997,0.28025,0.29033333333333333,0.27125,0.3094
706,0.29275,0.3105,0.28025,0.2896666666666667,0.27025,0.30920000000000003
707,0.292,0.31,0.28025,0.2886666666666666,0.26975000000000005,0.30900000000000005
708,0.2915,0.30974999999999997,0.28,0.288,0.26875000000000004,0.30860000000000004
709,0.29125,0.30924999999999997,0.27975,0.2873333333333333,0.2685,0.30779999999999996
710,0.29125,0.30875,0.27975,0.2873333333333333,0.2685,0.30779999999999996
711,0.291,0.30875,0.27975,0.2873333333333333,0.26825,0.3074
712,0.29074999999999995,0.30774999999999997,0.27925,0.287,0.268,0.3066
713,0.29074999999999995,0.30724999999999997,0.2785,0.287,0.2675,0.3064
714,0.2905,0.307,0.2785,0.2866666666666666,0.267,0.30619999999999997
715,0.29024999999999995,0.307,0.2785,0.286,0.26675000000000004,0.3056
716,0.28974999999999995,0.30675,0.27775000000000005,0.285,0.26675000000000004,0.3054
717,0.28974999999999995,0.3065,0.2775,0.285,0.26625,0.3054
718,0.28974999999999995,0.3065,0.27725,0.286,0.2665,0.3054
719,0.28974999999999995,0.3065,0.2765,0.286,0.26625,0.3052
720,0.2895,0.306,0.2765,0.286,0.26625,0.3052
721,0.28975,0.30574999999999997,0.276,0.286,0.26575000000000004,0.30479999999999996
722,0.2895,0.30574999999999997,0.276,0.2856666666666667,0.26575000000000004,0.3046
723,0.28874999999999995,0.30525,0.27575000000000005,0.285,0.265,0.30399999999999994
724,0.288,0.305,0.27575000000000005,0.2846666666666666,0.26475000000000004,0.30379999999999996
725,0.28775,0.305,0.27575000000000005,0.2836666666666667,0.2645,0.3036
726,0.2875,0.30374999999999996,0.27575000000000005,0.2836666666666667,0.26425,0.3032
727,0.287,0.30374999999999996,0.27575000000000005,0.283,0.264,0.3024
728,0.28674999999999995,0.302,0.2755,0.2826666666666667,0.26325,0.3022
729,0.28674999999999995,0.3,0.2755,0.2823333333333333,0.2635,0.302
730,0.28625,0.29874999999999996,0.2755,0.2823333333333333,0.2635,0.30179999999999996
731,0.286,0.29724999999999996,0.2755,0.28200000000000003,0.2635,0.3016
732,0.2855,0.2965,0.275,0.28200000000000003,0.263,0.3018
733,0.2855,0.29625,0.27525,0.2813333333333333,0.2625,0.3014
734,0.28525,0.29625,0.275,0.281,0.26225,0.3014
735,0.28500000000000003,0.29575,0.2745,0.281,0.26225,0.3014
736,0.28500000000000003,0.29524999999999996,0.27425,0.281,0.262,0.3006
737,0.28424999999999995,0.29524999999999996,0.274,0.281,0.26175000000000004,0.3006
738,0.284,0.29524999999999996,0.27225,0.28,0.26,0.2996
739,0.28374999999999995,0.29624999999999996,0.27175000000000005,0.2793333333333334,0.25975000000000004,0.29900000000000004
740,0.283,0.29624999999999996,0.2705,0.2776666666666667,0.259,0.29799999999999993
741,0.28224999999999995,0.29675,0.2705,0.2773333333333334,0.25875000000000004,0.29779999999999995
742,0.28224999999999995,0.29675,0.27025,0.2773333333333334,0.2585,0.29799999999999993
743,0.2825,0.29675,0.2695,0.277,0.25825,0.29779999999999995
744,0.282,0.29675,0.269,0.277,0.25825,0.2976
745,0.28175,0.2965,0.269,0.2763333333333334,0.25775000000000003,0.29700000000000004
746,0.28175,0.2965,0.26875000000000004,0.2763333333333334,0.2575,0.2966
747,0.281,0.2965,0.268,0.2763333333333334,0.25675000000000003,0.29639999999999994
748,0.28075,0.29574999999999996,0.2675,0.2763333333333334,0.25675000000000003,0.29639999999999994
749,0.2805,0.29574999999999996,0.26775000000000004,0.275,0.25675000000000003,0.29579999999999995
750,0.27999999999999997,0.29524999999999996,0.2675,0.275,0.25675000000000003,0.29599999999999993
751,0.27999999999999997,0.29474999999999996,0.26725,0.275,0.25625,0.29599999999999993
752,0.27925,0.2945,0.267,0.27466666666666667,0.25625,0.29599999999999993
753,0.279,0.2945,0.2665,0.275,0.256,0.2956
754,0.27925,0.295,0.26675000000000004,0.275,0.256,0.2954
755,0.28049999999999997,0.29425,0.2665,0.27466666666666667,0.256,0.2952
756,0.27925,0.29425,0.26675000000000004,0.27466666666666667,0.256,0.2956
757,0.27925,0.29425,0.2655,0.2743333333333334,0.256,0.2954
758,0.27925,0.29474999999999996,0.2655,0.274,0.25525,0.2954
759,0.27975,0.295,0.2655,0.274,0.25525,0.2954
760,0.27949999999999997,0.2945,0.26525,0.2733333333333334,0.25525,0.29379999999999995
761,0.27875,0.294,0.2655,0.2733333333333334,0.255,0.29279999999999995
762,0.27875,0.2935,0.2655,0.27366666666666667,0.255,0.29219999999999996
763,0.27675000000000005,0.2925,0.2645,0.27233333333333337,0.25325,0.2919999999999999
764,0.27575000000000005,0.29175,0.26425,0.271,0.25225,0.291
765,0.2755,0.29124999999999995,0.26475000000000004,0.27033333333333337,0.2525,0.2914
766,0.27625,0.291,0.2655,0.27133333333333337,0.25275000000000003,0.2919999999999999
767,0.277,0.291,0.26325,0.27166666666666667,0.253,0.29159999999999997
768,0.27825,0.29124999999999995,0.26225,0.27266666666666667,0.253,0.29159999999999997
769,0.278,0.29174999999999995,0.262,0.27266666666666667,0.25375000000000003,0.2912
770,0.278,0.2915,0.26225,0.27166666666666667,0.25375000000000003,0.29179999999999995
771,0.27749999999999997,0.29175,0.262,0.272,0.2535,0.29159999999999997
772,0.276,0.2915,0.26175000000000004,0.27233333333333337,0.25325,0.2914
773,0.27525,0.292,0.261,0.27133333333333337,0.25275000000000003,0.29019999999999996
774,0.275,0.2915,0.26075000000000004,0.27166666666666667,0.252,0.29019999999999996
775,0.27475000000000005,0.29175,0.26125,0.27233333333333337,0.25175000000000003,0.2904
776,0.27525,0.29124999999999995,0.26175000000000004,0.27233333333333337,0.25125,0.2902
777,0.27525,0.29125,0.2615,0.27133333333333337,0.25125,0.2904
778,0.275,0.291,0.2615,0.27066666666666667,0.25125,0.2894
779,0.27425,0.29024999999999995,0.2615,0.27,0.2505,0.2884
780,0.27425,0.29024999999999995,0.26125,0.27033333333333337,0.25075000000000003,0.2888
781,0.2745,0.2895,0.2595,0.26966666666666667,0.2505,0.28900000000000003
782,0.27475000000000005,0.28924999999999995,0.25975000000000004,0.26966666666666667,0.2505,0.2888
783,0.2745,0.289,0.259,0.26966666666666667,0.251,0.2894
784,0.27375000000000005,0.28874999999999995,0.25875000000000004,0.26966666666666667,0.25075000000000003,0.28979999999999995
785,0.27325,0.2875,0.25875000000000004,0.26933333333333337,0.25075000000000003,0.28979999999999995
786,0.273,0.28775,0.2585,0.26866666666666666,0.2495,0.2886
787,0.27275000000000005,0.28725,0.2565,0.26833333333333337,0.248,0.28819999999999996
788,0.2715,0.2865,0.25525,0.26633333333333337,0.2475,0.28759999999999997
789,0.27075000000000005,0.28525,0.2525,0.265,0.2465,0.2872
790,0.27075000000000005,0.28400000000000003,0.25175000000000003,0.26566666666666666,0.246,0.28659999999999997
791,0.271,0.28225,0.2505,0.26566666666666666,0.24575,0.2854
792,0.27125,0.28175,0.249,0.26566666666666666,0.24575,0.2852
793,0.2715,0.28125,0.24775,0.26566666666666666,0.24575,0.2846
794,0.2715,0.28125,0.2475,0.267,0.24575,0.2846
795,0.27225,0.28099999999999997,0.2475,0.267,0.24625,0.28500000000000003
796,0.2725,0.28125,0.24875,0.267,0.24625,0.2854
797,0.2725,0.28175,0.25075000000000003,0.267,0.246,0.2859999999999999
798,0.272,0.28175,0.252,0.26666666666666666,0.246,0.2859999999999999
799,0.27175000000000005,0.282,0.25325,0.266,0.2455,0.28579999999999994
800,0.2715,0.28225,0.25425,0.26533333333333337,0.245,0.28579999999999994
801,0.27025,0.28200000000000003,0.254,0.265,0.2445,0.28559999999999997
802,0.26925,0.28175,0.254,0.26233333333333336,0.2435,0.2852
803,0.26825,0.28075,0.25425,0.26166666666666666,0.243,0.28459999999999996
804,0.2665,0.27925,0.25425,0.261,0.2415,0.2828
805,0.26575000000000004,0.27925,0.254,0.25933333333333336,0.24125,0.282
806,0.26475000000000004,0.279,0.25375000000000003,0.25833333333333336,0.2405,0.2812
807,0.2645,0.2785,0.25375000000000003,0.25766666666666665,0.24025,0.28080000000000005
808,0.26425,0.27825,0.2535,0.257,0.24025,0.28080000000000005
809,0.264,0.27775000000000005,0.253,0.25633333333333336,0.23975,0.28040000000000004
810,0.2635,0.27725,0.253,0.25566666666666665,0.23925,0.2798
811,0.2635,0.27675000000000005,0.25275000000000003,0.25566666666666665,0.23925,0.27940000000000004
812,0.2635,0.27675000000000005,0.252,0.25566666666666665,0.23875,0.27940000000000004
813,0.2635,0.27675000000000005,0.251,0.25566666666666665,0.23825,0.2792
814,0.26275000000000004,0.277,0.251,0.256,0.2385,0.2792
815,0.26275000000000004,0.27725,0.25075000000000003,0.256,0.2385,0.279
816,0.26275000000000004,0.2765,0.25025,0.256,0.23825,0.2792
817,0.26175000000000004,0.27675000000000005,0.25025,0.25633333333333336,0.23825,0.2782
818,0.25925,0.2765,0.25,0.256,0.23725,0.278
819,0.259,0.27475000000000005,0.24975,0.25533333333333336,0.23675,0.278
820,0.25825,0.274,0.25025,0.254,0.23475,0.2772
821,0.2565,0.27275000000000005,0.25,0.25133333333333335,0.2325,0.2760000000000001
822,0.2475,0.26975000000000005,0.248,0.24566666666666667,0.22675,0.2732
823,0.2445,0.2685,0.249,0.241,0.22575,0.2726
824,0.24625,0.26975000000000005,0.25075000000000003,0.241,0.22625,0.2772
825,0.2505,0.26975000000000005,0.25225,0.24366666666666667,0.22825,0.2782
826,0.257,0.26925,0.25175000000000003,0.24933333333333332,0.2295,0.2756
827,0.2595,0.26925,0.2445,0.25266666666666665,0.22975,0.274
828,0.2585,0.26925,0.23925,0.251,0.2295,0.2712
829,0.2585,0.26975000000000005,0.24025,0.25066666666666665,0.23125,0.27140000000000003
830,0.26,0.26975000000000005,0.24225,0.25133333333333335,0.23324999999999999,0.27140000000000003
831,0.26125,0.27,0.24225,0.25333333333333335,0.23375,0.2716
832,0.26225,0.27025,0.23925,0.25433333333333336,0.23375,0.27180000000000004
833,0.25975000000000004,0.27025,0.2385,0.25366666666666665,0.23224999999999998,0.27180000000000004
834,0.25475000000000003,0.2695,0.239,0.248,0.229,0.27180000000000004
835,0.25375000000000003,0.269,0.244,0.246,0.229,0.27240000000000003
836,0.256,0.269,0.2465,0.24766666666666667,0.2315,0.2726
837,0.2585,0.269,0.24575,0.25033333333333335,0.23225,0.27240000000000003
838,0.261,0.269,0.24275,0.25133333333333335,0.2325,0.2726
839,0.26125,0.26925,0.23875,0.25166666666666665,0.23324999999999999,0.2726
840,0.26075000000000004,0.2685,0.23725,0.252,0.23249999999999998,0.2726
841,0.25825,0.2685,0.2375,0.25133333333333335,0.23125,0.273
842,0.25775000000000003,0.26875000000000004,0.238,0.25066666666666665,0.231,0.274
843,0.25875000000000004,0.26875000000000004,0.23975,0.25066666666666665,0.2315,0.274
844,0.25925,0.269,0.23975,0.25066666666666665,0.23275,0.27359999999999995
845,0.26175000000000004,0.269,0.23975,0.25166666666666665,0.23324999999999999,0.27359999999999995
846,0.26025,0.26875000000000004,0.24025,0.25133333333333335,0.23374999999999999,0.2734
847,0.258,0.26925,0.24025,0.251,0.23399999999999999,0.2734
848,0.25875000000000004,0.2695,0.2405,0.25133333333333335,0.23324999999999999,0.2732
849,0.2585,0.2695,0.24125,0.25066666666666665,0.23324999999999999,0.27280000000000004
850,0.25825,0.2695,0.2415,0.25066666666666665,0.233,0.27280000000000004
851,0.258,0.26875000000000004,0.2415,0.25066666666666665,0.23299999999999998,0.27260000000000006
852,0.258,0.269,0.2415,0.25133333333333335,0.2325,0.2726
853,0.25875000000000004,0.26975000000000005,0.24125,0.251,0.23225,0.2734
854,0.25675000000000003,0.2695,0.243,0.24866666666666667,0.23,0.2716
855,0.25725,0.26975000000000005,0.2425,0.24866666666666667,0.23,0.2716
856,0.25725,0.27025,0.2425,0.24866666666666667,0.23025,0.2728
857,0.2575,0.2695,0.24125,0.24833333333333332,0.22975,0.27240000000000003
858,0.257,0.26925,0.24075,0.24866666666666667,0.22975,0.27240000000000003
859,0.25725,0.26925,0.24125,0.24866666666666667,0.23025,0.2718
860,0.258,0.26925,0.24125,0.24766666666666667,0.23025,0.27220000000000005
861,0.25725,0.26725,0.24075,0.24733333333333332,0.2305,0.27280000000000004
862,0.257,0.26675000000000004,0.241,0.24666666666666667,0.23025,0.2726
863,0.25675000000000003,0.26625,0.241,0.24633333333333332,0.2305,0.27380000000000004
864,0.256,0.26625,0.24025,0.24566666666666667,0.22975,0.2732
865,0.256,0.266,0.24025,0.24566666666666667,0.228,0.2728
866,0.2555,0.26575000000000004,0.24075,0.24666666666666667,0.22775,0.2726
867,0.2555,0.265,0.24075,0.24566666666666667,0.2275,0.2726
868,0.2555,0.265,0.2405,0.24533333333333332,0.2275,0.2726
869,0.2545,0.265,0.24025,0.245,0.22725,0.2716
870,0.254,0.2655,0.24025,0.24466666666666667,0.2255,0.2716
871,0.254,0.26525,0.23975,0.24433333333333332,0.22625,0.27080000000000004
872,0.25375000000000003,0.264,0.23975,0.244,0.22625,0.269
873,0.25325,0.26475000000000004,0.2395,0.24366666666666667,0.22625,0.2694
874,0.25325,0.264,0.23925,0.24333333333333332,0.226,0.2692
875,0.25325,0.26275000000000004,0.2385,0.24333333333333332,0.225,0.2684
876,0.25175000000000003,0.26275000000000004,0.23775,0.24333333333333332,0.225,0.2684
877,0.2515,0.26275000000000004,0.2375,0.243,0.22475,0.2684
878,0.24975,0.26225,0.23675,0.24266666666666667,0.22375,0.2684
879,0.24925,0.262,0.23575,0.24133333333333332,0.223,0.2674
880,0.246,0.26075000000000004,0.2345,0.24066666666666667,0.22175,0.26680000000000004
881,0.24125,0.25875000000000004,0.23249999999999998,0.2363333333333333,0.21925,0.2664
882,0.24,0.258,0.23475,0.232,0.2185,0.26539999999999997
883,0.24,0.25675000000000003,0.23875,0.23233333333333336,0.2195,0.266
884,0.24075,0.25675000000000003,0.2385,0.23233333333333336,0.22125,0.2646
885,0.24275,0.2565,0.23825,0.2343333333333333,0.223,0.26180000000000003
886,0.248,0.25775000000000003,0.23475,0.24133333333333332,0.22325,0.26020000000000004
887,0.25,0.25725,0.22725,0.24233333333333332,0.2225,0.26020000000000004
888,0.25,0.25725,0.21975,0.242,0.221,0.2596
889,0.25,0.257,0.21975,0.24133333333333332,0.22075,0.2596
890,0.2505,0.257,0.2225,0.24166666666666667,0.22075,0.2598
891,0.2495,0.257,0.22425,0.24133333333333332,0.22025,0.26000000000000006
892,0.24875,0.257,0.22575,0.24133333333333332,0.22,0.2604
893,0.24775,0.257,0.22625,0.241,0.21975,0.26080000000000003
894,0.2475,0.257,0.227,0.24066666666666667,0.21975,0.2612
895,0.2455,0.257,0.228,0.23933333333333331,0.219,0.26180000000000003
896,0.2455,0.25825,0.22975,0.2383333333333333,0.21875,0.2622
897,0.24575,0.25725,0.23175,0.23666666666666666,0.2195,0.26139999999999997
898,0.24625,0.25675000000000003,0.23349999999999999,0.23666666666666666,0.2195,0.261
899,0.24675,0.25675000000000003,0.23075,0.24166666666666667,0.2195,0.26080000000000003
900,0.248,0.2565,0.22625,0.242,0.2195,0.2606
901,0.248,0.2565,0.22375,0.241,0.219,0.2606
902,0.24775,0.256,0.223,0.241,0.219,0.2606
903,0.2475,0.256,0.224,0.23966666666666667,0.2185,0.2606
904,0.2445,0.256,0.2255,0.23866666666666667,0.21675,0.26180000000000003
905,0.241,0.256,0.2285,0.236,0.2165,0.264
906,0.2405,0.25525,0.233,0.23566666666666666,0.21775,0.2636
907,0.24075,0.25425,0.23324999999999999,0.23566666666666666,0.2175,0.26239999999999997
908,0.244,0.25325,0.23125,0.237,0.21875,0.26060000000000005
909,0.24675,0.254,0.2275,0.238,0.2185,0.2604
910,0.247,0.254,0.222,0.2383333333333333,0.21725,0.2586
911,0.2465,0.2535,0.22075,0.2383333333333333,0.2165,0.2586
912,0.24625,0.254,0.2225,0.238,0.21625,0.26020000000000004
913,0.246,0.25425,0.225,0.238,0.2165,0.26
914,0.24575,0.25425,0.226,0.23666666666666666,0.2165,0.26020000000000004
915,0.2435,0.25425,0.22725,0.23666666666666666,0.216,0.261
916,0.239,0.2545,0.2275,0.23399999999999999,0.2145,0.2622
917,0.23875,0.25475000000000003,0.23125,0.23199999999999998,0.215,0.2622
918,0.239,0.25475000000000003,0.234,0.2323333333333333,0.21525,0.2616
919,0.2395,0.2535,0.23375,0.2323333333333333,0.21575,0.26139999999999997
920,0.2445,0.25325,0.2295,0.2333333333333333,0.216,0.261
921,0.2475,0.25275000000000003,0.21975,0.23666666666666666,0.2155,0.2584
922,0.2475,0.2525,0.215,0.237,0.2145,0.2576
923,0.24725,0.25275000000000003,0.216,0.237,0.21425,0.2576
924,0.2465,0.25275000000000003,0.21775,0.237,0.2145,0.2576
925,0.24625,0.25325,0.21875,0.2363333333333333,0.2145,0.2578
926,0.246,0.25325,0.22075,0.2363333333333333,0.2145,0.25820000000000004
927,0.2445,0.25325,0.222,0.2363333333333333,0.2145,0.25880000000000003
928,0.24375,0.2525,0.2225,0.2363333333333333,0.21425,0.259
929,0.24375,0.25275000000000003,0.22275,0.2363333333333333,0.214,0.25939999999999996
930,0.244,0.25275000000000003,0.22275,0.2353333333333333,0.214,0.2598
931,0.244,0.25275000000000003,0.225,0.236,0.214,0.2596
932,0.244,0.25325,0.2255,0.2363333333333333,0.21425,0.2596
933,0.244,0.25325,0.226,0.236,0.214,0.2596
934,0.24375,0.253,0.22625,0.2353333333333333,0.21375,0.2598
935,0.2435,0.253,0.2265,0.23399999999999999,0.21375,0.2596
936,0.24325,0.253,0.2265,0.23399999999999999,0.21375,0.2596
937,0.242,0.25325,0.2265,0.23399999999999999,0.21375,0.2594
938,0.24075,0.25325,0.228,0.23399999999999999,0.214,0.26000000000000006
939,0.2405,0.253,0.22975,0.2336666666666667,0.21425,0.26000000000000006
940,0.2405,0.253,0.22975,0.2336666666666667,0.21375,0.26000000000000006
941,0.24075,0.2525,0.22975,0.2336666666666667,0.2135,0.2594
942,0.24175,0.25125,0.22675,0.23399999999999999,0.21275,0.2584
943,0.2425,0.251,0.2245,0.23466666666666666,0.2125,0.2578
944,0.2415,0.25075000000000003,0.22325,0.2343333333333333,0.212,0.257
945,0.2415,0.25075000000000003,0.223,0.23399999999999999,0.21175,0.2576
946,0.24125,0.25075000000000003,0.22275,0.2333333333333333,0.21125,0.258
947,0.2415,0.2505,0.2225,0.23366666666666666,0.2115,0.2574
948,0.241,0.2505,0.22275,0.2333333333333333,0.21175,0.2576
949,0.24075,0.2505,0.22275,0.23299999999999998,0.21125,0.2576
950,0.24625,0.257,0.2295,0.23866666666666667,0.2175,0.26420000000000005
951,0.2525,0.264,0.23825,0.24566666666666667,0.22425,0.27120000000000005
952,0.2535,0.26425,0.24175,0.24833333333333332,0.2275,0.2726
953,0.256,0.26425,0.2425,0.24933333333333332,0.22825,0.2726
954,0.25675000000000003,0.265,0.24225,0.25066666666666665,0.2285,0.2732
955,0.2595,0.26575000000000004,0.24225,0.25266666666666665,0.231,0.2734
956,0.262,0.26775000000000004,0.24275,0.254,0.23224999999999998,0.27460000000000007
957,0.264,0.26975000000000005,0.24375,0.25633333333333336,0.23375,0.277
958,0.26475000000000004,0.27225,0.245,0.25733333333333336,0.23525,0.28020000000000006
959,0.26625,0.2735,0.248,0.25966666666666666,0.236,0.28179999999999994
960,0.26725,0.275,0.24975,0.26066666666666666,0.2365,0.2826
961,0.268,0.27625,0.25075000000000003,0.26166666666666666,0.23725,0.2838
962,0.26875000000000004,0.2765,0.253,0.26233333333333336,0.23875,0.2844
963,0.26925,0.27675000000000005,0.25425,0.263,0.2395,0.28519999999999995
964,0.27,0.27825,0.2545,0.26333333333333336,0.23975,0.28639999999999993
965,0.27075000000000005,0.27925,0.2555,0.264,0.24025,0.2878
966,0.2715,0.28025,0.257,0.26566666666666666,0.24175,0.2894
967,0.27275000000000005,0.2825,0.259,0.26766666666666666,0.243,0.2914
968,0.27475000000000005,0.284,0.26125,0.26866666666666666,0.245,0.29319999999999996
969,0.276,0.2865,0.2645,0.272,0.247,0.2956
970,0.2795,0.289,0.2685,0.2743333333333334,0.251,0.298
971,0.28025,0.29025,0.26925,0.275,0.25175000000000003,0.2986
972,0.28025,0.28925,0.26875000000000004,0.275,0.25175000000000003,0.29819999999999997
973,0.2785,0.28824999999999995,0.26675000000000004,0.27466666666666667,0.25025,0.2966
974,0.2775,0.28725,0.26575000000000004,0.274,0.249,0.29579999999999995
975,0.276,0.286,0.262,0.27233333333333337,0.248,0.294
976,0.276,0.2855,0.26175000000000004,0.272,0.24775,0.2932
977,0.27575000000000005,0.284,0.26075000000000004,0.27166666666666667,0.24725,0.2932
978,0.27425,0.283,0.26025,0.271,0.2465,0.29179999999999995
979,0.27125,0.28099999999999997,0.25925,0.26833333333333337,0.243,0.29
980,0.267,0.275,0.258,0.26033333333333336,0.236,0.2878
981,0.25975000000000004,0.26875000000000004,0.2535,0.25633333333333336,0.23324999999999999,0.28060000000000007
982,0.2565,0.26375000000000004,0.24475,0.25066666666666665,0.229,0.2782
983,0.2535,0.257,0.24,0.24933333333333332,0.227,0.2712
984,0.25425,0.257,0.23375,0.24866666666666667,0.22275,0.2684
985,0.2565,0.25975000000000004,0.231,0.25166666666666665,0.2255,0.2684
986,0.265,0.26425,0.22925,0.25566666666666665,0.23,0.2716
987,0.26875000000000004,0.2715,0.2365,0.25966666666666666,0.2355,0.278
988,0.273,0.277,0.246,0.26533333333333337,0.23975,0.285
989,0.27325,0.27825,0.25,0.26733333333333337,0.2415,0.28619999999999995
990,0.27325,0.27825,0.251,0.268,0.2415,0.28659999999999997
991,0.27175000000000005,0.27675000000000005,0.251,0.26733333333333337,0.24,0.28619999999999995
992,0.26725,0.27575000000000005,0.2505,0.265,0.23725,0.286
993,0.266,0.27275000000000005,0.2495,0.261,0.2315,0.28359999999999996
994,0.2615,0.27075000000000005,0.24875,0.25533333333333336,0.22425,0.2828
995,0.25375000000000003,0.26125,0.247,0.253,0.221,0.2736
996,0.252,0.25125,0.24075,0.25133333333333335,0.21975,0.2692
997,0.2525,0.24925,0.23525000000000001,0.251,0.219,0.2672
998,0.25375000000000003,0.25,0.23075,0.249,0.21975,0.2664
999,0.254,0.25175000000000003,0.22075,0.248,0.21975,0.2664
1000.00,0.25775000000000003,0.25625,0.2195,0.24833333333333332,0.222,0.2676
1001.00,0.26025,0.262,0.22325,0.24933333333333332,0.22475,0.27
1002.00,0.26175000000000004,0.26375000000000004,0.23075,0.254,0.22575,0.2726
1003.00,0.26225,0.2655,0.23425,0.25466666666666665,0.22775,0.2746
1004.00,0.2625,0.266,0.236,0.25533333333333336,0.2285,0.27620000000000006
1005.00,0.263,0.267,0.2385,0.25533333333333336,0.22975,0.27680000000000005
1006.00,0.26375000000000004,0.26675000000000004,0.2395,0.25566666666666665,0.23,0.27780000000000005
1007.00,0.2635,0.26675000000000004,0.2395,0.25633333333333336,0.22975,0.2784000000000001
1008.00,0.2635,0.267,0.2395,0.25633333333333336,0.23025,0.27860000000000007
1009.00,0.26325,0.26775000000000004,0.23975,0.25633333333333336,0.22975,0.2782
1010.00,0.26325,0.26775000000000004,0.23975,0.257,0.2305,0.2782
1011.00,0.26275000000000004,0.2675,0.24075,0.25633333333333336,0.2305,0.2784
1012.00,0.263,0.267,0.2405,0.25633333333333336,0.2295,0.27820000000000006
1013.00,0.262,0.265,0.2405,0.255,0.2285,0.2782
1014.00,0.26175000000000004,0.26275000000000004,0.24025,0.255,0.22725,0.27640000000000003
1015.00,0.26125,0.261,0.23725,0.25433333333333336,0.2265,0.2744
1016.00,0.26175000000000004,0.2605,0.23575,0.25433333333333336,0.2255,0.2742
1017.00,0.261,0.2605,0.23475000000000001,0.25366666666666665,0.226,0.27440000000000003
1018.00,0.26125,0.2615,0.23525000000000001,0.253,0.22675,0.27540000000000003
1019.00,0.26175000000000004,0.2645,0.236,0.25366666666666665,0.2275,0.275
1020.00,0.26325,0.265,0.23625,0.254,0.2285,0.2756
1021.00,0.264,0.266,0.238,0.25566666666666665,0.22925,0.2768
1022.00,0.26525,0.26775000000000004,0.239,0.258,0.22999999999999998,0.27780000000000005
1023.00,0.26625,0.269,0.24125,0.26033333333333336,0.23425,0.2792
1024.00,0.267,0.2695,0.2435,0.26166666666666666,0.23475,0.27999999999999997
1025.00,0.2685,0.27125,0.24575,0.26266666666666666,0.235,0.28200000000000003
1026.00,0.2695,0.27225,0.24725,0.263,0.23625,0.2836
1027.00,0.2715,0.27425,0.2475,0.26633333333333337,0.23775,0.284
1028.00,0.2715,0.276,0.24775,0.26633333333333337,0.23775,0.2848
1029.00,0.273,0.27575000000000005,0.2485,0.267,0.23875,0.28559999999999997
1030.00,0.2735,0.27575000000000005,0.2495,0.26766666666666666,0.239,0.2864
1031.00,0.2735,0.276,0.2485,0.26766666666666666,0.2395,0.2874
1032.00,0.2735,0.2765,0.2485,0.268,0.2395,0.2874
1033.00,0.27425,0.2765,0.24925,0.26833333333333337,0.24125,0.28959999999999997
1034.00,0.27575000000000005,0.28,0.25,0.27,0.242,0.28979999999999995
1035.00,0.276,0.28025,0.25125,0.27033333333333337,0.2425,0.2904
1036.00,0.2765,0.28025,0.2525,0.27133333333333337,0.24325,0.29059999999999997
1037.00,0.27725,0.28075,0.2525,0.275,0.24325,0.29179999999999995
1038.00,0.27875,0.2825,0.25525,0.277,0.2445,0.2924
1039.00,0.28,0.28374999999999995,0.256,0.2776666666666667,0.2455,0.2934
1040.00,0.28325,0.2845,0.25925,0.2793333333333334,0.248,0.296
1041.00,0.285,0.28675,0.25925,0.2806666666666667,0.2485,0.297
1042.00,0.28674999999999995,0.2875,0.2605,0.282,0.2495,0.2972
1043.00,0.2885,0.28824999999999995,0.26075000000000004,0.282,0.2505,0.2976
1044.00,0.28874999999999995,0.28975,0.261,0.2826666666666667,0.251,0.2976
1045.00,0.28874999999999995,0.28975,0.26125,0.2826666666666667,0.251,0.2988
1046.00,0.289,0.2895,0.262,0.2826666666666667,0.25325,0.2992
1047.00,0.2895,0.29,0.26225,0.2833333333333334,0.2535,0.2992
1048.00,0.2905,0.291,0.263,0.2836666666666667,0.25375000000000003,0.30019999999999997
1049.00,0.29074999999999995,0.2915,0.264,0.284,0.253,0.3
1050.00,0.29074999999999995,0.29125,0.26475000000000004,0.2846666666666666,0.25325,0.30060000000000003
1051.00,0.29074999999999995,0.2915,0.26475000000000004,0.2856666666666667,0.25325,0.30100000000000005
1052.00,0.2915,0.2905,0.2645,0.2866666666666666,0.25425,0.3008
1053.00,0.2915,0.289,0.264,0.2866666666666666,0.25325,0.30060000000000003
1054.00,0.29125,0.2895,0.26425,0.2866666666666666,0.25425,0.3004
1055.00,0.29075,0.29125,0.26475000000000004,0.2866666666666666,0.2545,0.3008
1056.00,0.29075,0.2925,0.26525,0.2866666666666666,0.2555,0.30219999999999997
1057.00,0.293,0.294,0.26625,0.287,0.257,0.303
1058.00,0.3,0.29724999999999996,0.27025,0.289,0.26375000000000004,0.30619999999999997
1059.00,0.304,0.30224999999999996,0.27625,0.292,0.2685,0.312
1060.00,0.308,0.30824999999999997,0.28325,0.2956666666666667,0.27075000000000005,0.3126
1061.00,0.30924999999999997,0.313,0.28675,0.3,0.27125,0.3142
1062.00,0.31024999999999997,0.313,0.28674999999999995,0.30233333333333334,0.27575000000000005,0.3154
1063.00,0.31024999999999997,0.313,0.2855,0.30433333333333334,0.276,0.3168
1064.00,0.3095,0.31225,0.2855,0.30433333333333334,0.27575000000000005,0.3164
1065.00,0.30975,0.31075,0.28525,0.305,0.27525,0.3164
1066.00,0.31075,0.311,0.28475,0.307,0.2755,0.3162
1067.00,0.3125,0.312,0.28500000000000003,0.308,0.276,0.3174
1068.00,0.313,0.31325000000000003,0.28625,0.30866666666666664,0.2765,0.322
1069.00,0.314,0.31425000000000003,0.28875,0.309,0.27825,0.323
1070.00,0.314,0.31625000000000003,0.29175,0.311,0.27975,0.32320000000000004
1071.00,0.31475,0.3175,0.29275,0.311,0.28,0.3232
1072.00,0.315,0.3155,0.2935,0.3116666666666667,0.2805,0.32239999999999996
1073.00,0.31525,0.31575,0.29224999999999995,0.312,0.28200000000000003,0.32239999999999996
1074.00,0.31625,0.3165,0.29174999999999995,0.313,0.28175,0.325
1075.00,0.3175,0.31725,0.292,0.3136666666666667,0.28324999999999995,0.32520000000000004
1076.00,0.31975,0.318,0.29424999999999996,0.3173333333333333,0.28375,0.326
1077.00,0.32125000000000004,0.32175000000000004,0.2955,0.3176666666666667,0.283,0.3266
1078.00,0.3205,0.32275,0.29525,0.3173333333333333,0.28325,0.32660000000000006
1079.00,0.321,0.3225,0.29525,0.316,0.28425,0.3262
1080.00,0.3215,0.32275000000000004,0.29574999999999996,0.31433333333333335,0.28575,0.326
1081.00,0.3225,0.32125000000000004,0.29525,0.316,0.28625,0.3274
1082.00,0.32275000000000004,0.32125000000000004,0.29474999999999996,0.316,0.287,0.3272
1083.00,0.32375,0.3225,0.29624999999999996,0.31866666666666665,0.287,0.3282
1084.00,0.323,0.32375,0.29775,0.31833333333333336,0.28774999999999995,0.3292
1085.00,0.32175000000000004,0.32325000000000004,0.298,0.319,0.288,0.32920000000000005
1086.00,0.321,0.32275000000000004,0.2955,0.319,0.28724999999999995,0.32920000000000005
1087.00,0.322,0.3235,0.29525,0.31866666666666665,0.2875,0.328
1088.00,0.32375000000000004,0.324,0.2945,0.3176666666666667,0.28975,0.3272
1089.00,0.325,0.326,0.29424999999999996,0.3196666666666667,0.2895,0.3302
1090.00,0.32725000000000004,0.32625,0.29725,0.3196666666666667,0.289,0.336
1091.00,0.332,0.32825000000000004,0.3005,0.321,0.28974999999999995,0.33720000000000006
1092.00,0.33325,0.328,0.301,0.32666666666666666,0.29025,0.33740000000000003
1093.00,0.336,0.32975,0.3005,0.3256666666666667,0.29125,0.338
1094.00,0.3365,0.32975000000000004,0.30075,0.325,0.292,0.3378
1095.00,0.33425,0.33,0.303,0.32466666666666666,0.29224999999999995,0.34040000000000004
1096.00,0.33275,0.331,0.3025,0.324,0.295,0.34020000000000006
1097.00,0.3335,0.332,0.3025,0.3253333333333333,0.29474999999999996,0.3396
1098.00,0.33549999999999996,0.334,0.3045,0.3273333333333333,0.29974999999999996,0.34040000000000004
1099.00,0.33875000000000005,0.3355,0.306,0.3313333333333333,0.30174999999999996,0.3428
1100.00,0.17225000000000001,0.202,0.11975000000000001,0.2253333333333333,0.15800000000000003,0.1834
