wavelength,S7 Clean,S7 Unclean
190,2.0,2.1
191,1.8499999999999999,1.9249999999999998
192,1.75,1.8
193,1.725,1.725
194,1.675,1.65
195,1.625,1.625
196,1.6,1.625
197,1.6,1.625
198,1.6,1.6
199,1.6,1.6
200,1.6,1.6
201,1.65,1.65
202,1.7,1.6749999999999998
203,1.725,1.75
204,1.8,1.825
205,1.9249999999999998,1.9500000000000002
206,2.1,2.125
207,2.3,2.3499999999999996
208,2.525,2.6
209,2.8499999999999996,2.9250000000000003
210,3.2,3.3
211,3.6,3.7249999999999996
212,4.074999999999999,4.225
213,4.625,4.75
214,5.15,5.3
215,5.425,5.55
216,5.85,6.0
217,6.475,6.675000000000001
218,7.199999999999999,7.3500000000000005
219,7.8500000000000005,8.075
220,8.575,8.875
221,9.325,9.6
222,10.05,10.3
223,10.875,11.25
224,11.525,11.924999999999999
225,12.0,12.424999999999999
226,12.375,12.8
227,12.65,13.075
228,12.725000000000001,13.125
229,12.575,13.05
230,12.5,12.875
231,12.325,12.7
232,12.075,12.424999999999999
233,11.8,12.2
234,11.475,11.924999999999999
235,11.200000000000001,11.55
236,10.899999999999999,11.325
237,10.625,11.0
238,10.375,10.75
239,10.2,10.525
240,10.125,10.424999999999999
241,10.025,10.350000000000001
242,9.975,10.350000000000001
243,9.95,10.325000000000001
244,9.975,10.350000000000001
245,10.275,10.65
246,10.725000000000001,11.125
247,11.1,11.525
248,11.424999999999999,11.925
249,11.775000000000002,12.3
250,12.275000000000002,12.75
251,13.0,13.525
252,13.8,14.325
253,14.5,15.1
254,15.250000000000002,15.825
255,16.0,16.625
256,16.775000000000002,17.475
257,17.575,18.4
258,18.400000000000002,19.275000000000002
259,19.35,20.225
260,20.049999999999997,20.95
261,20.425,21.4
262,20.675,21.725
263,21.1,22.174999999999997
264,21.575000000000003,22.575
265,21.974999999999998,22.975
266,22.425,23.5
267,22.825,23.9
268,23.125,24.15
269,23.375,24.375
270,23.6,24.65
271,23.900000000000002,25.0
272,24.050000000000004,25.1
273,24.050000000000004,25.050000000000004
274,24.050000000000004,25.025
275,24.050000000000004,25.050000000000004
276,24.15,25.225
277,24.225,25.4
278,24.299999999999997,25.424999999999997
279,24.299999999999997,25.424999999999997
280,24.375,25.5
281,24.500000000000004,25.75
282,24.675,25.825
283,24.675,25.825
284,24.65,25.85
285,24.675,25.85
286,24.75,26.049999999999997
287,24.825000000000003,26.125
288,24.85,26.1
289,24.925,26.200000000000003
290,25.200000000000003,26.474999999999998
291,25.3,26.525000000000002
292,25.3,26.5
293,25.3,26.55
294,25.450000000000003,26.624999999999996
295,25.575,26.725
296,25.65,26.775
297,25.674999999999997,26.9
298,25.700000000000003,26.825000000000003
299,25.625,26.800000000000004
300,25.625,26.85
301,25.674999999999997,27.0
302,25.775,27.125
303,25.825,27.15
304,25.875000000000004,27.300000000000004
305,25.975,27.5
306,26.275,27.624999999999996
307,26.5,27.875
308,26.7,28.099999999999998
309,26.775,28.15
310,26.775,28.15
311,26.8,28.174999999999997
312,26.85,28.275
313,27.000000000000004,28.45
314,27.174999999999997,28.65
315,27.125,28.474999999999998
316,27.1,28.4
317,27.125,28.6
318,27.299999999999997,28.775000000000002
319,27.35,28.85
320,27.375,28.875
321,27.65,29.200000000000003
322,28.099999999999998,29.625
323,28.174999999999997,29.725
324,28.05,29.525
325,27.925000000000004,29.424999999999997
326,27.9,29.4
327,27.9,29.45
328,28.025,29.6
329,28.2,29.825000000000003
330,28.4,30.025
331,28.575,30.225
332,28.599999999999998,30.275000000000002
333,28.575,30.200000000000003
334,28.55,30.200000000000003
335,28.599999999999998,30.300000000000004
336,28.700000000000003,30.424999999999997
337,28.775,30.499999999999996
338,28.8,30.525
339,28.85,30.674999999999997
340,29.025000000000002,30.875
341,29.225,31.15
342,29.35,31.300000000000004
343,29.3,31.275
344,29.075,31.05
345,28.95,30.9
346,28.975,30.925
347,29.125,31.125
348,29.25,31.325
349,29.275,31.375
350,29.425000000000004,31.45
351,29.5,31.625
352,29.575,31.675
353,29.674999999999997,31.75
354,29.725,31.85
355,29.775,31.85
356,29.675,31.75
357,29.55,31.624999999999996
358,29.65,31.700000000000003
359,29.7,31.775
360,29.475,31.45
361,29.0,31.025
362,28.900000000000002,30.974999999999998
363,28.925,30.900000000000002
364,28.974999999999998,31.075
365,29.075,31.200000000000003
366,29.075,31.225
367,29.174999999999997,31.25
368,29.275,31.425
369,29.4,31.6
370,29.425000000000004,31.625
371,29.425000000000004,31.65
372,29.450000000000003,31.7
373,29.525,31.75
374,29.549999999999997,31.85
375,29.575,31.875
376,29.225,31.55
377,28.925,31.324999999999996
378,28.925,31.0
379,28.9,31.0
380,28.975,31.1
381,29.025,31.15
382,28.950000000000003,31.15
383,28.950000000000003,31.15
384,28.925000000000004,31.125
385,28.85,31.075
386,28.8,30.95
387,28.75,30.925
388,28.75,31.049999999999997
389,28.825000000000003,31.049999999999997
390,29.35,31.6
391,29.55,32.0
392,29.675,32.2
393,29.724999999999998,32.225
394,29.724999999999998,32.225
395,29.775000000000002,32.25
396,29.925,32.3
397,30.0,32.375
398,30.0,32.375
399,30.0,32.375
400,30.049999999999997,32.525
401,30.15,32.525
402,30.2,32.575
403,30.15,32.575
404,30.15,32.525
405,30.099999999999998,32.5
406,30.125,32.5
407,30.15,32.5
408,30.15,32.55
409,30.25,32.575
410,30.25,32.575
411,30.25,32.6
412,30.25,32.574999999999996
413,30.35,32.6
414,30.35,32.6
415,30.4,32.6
416,30.450000000000003,32.725
417,30.525,32.75
418,30.599999999999998,32.849999999999994
419,30.599999999999998,32.900000000000006
420,30.65,32.974999999999994
421,30.65,32.974999999999994
422,30.65,32.974999999999994
423,30.674999999999997,32.95
424,30.674999999999997,32.925
425,30.725,32.900000000000006
426,30.725,32.900000000000006
427,30.700000000000003,32.900000000000006
428,30.775,32.900000000000006
429,30.824999999999996,32.900000000000006
430,30.799999999999997,32.900000000000006
431,30.85,32.95
432,30.950000000000003,33.05
433,31.025000000000002,33.05
434,31.025000000000002,33.075
435,31.025000000000002,33.125
436,31.125,33.175
437,31.174999999999997,33.225
438,31.225,33.3
439,31.25,33.35
440,31.275,33.375
441,31.3,33.4
442,31.4,33.425
443,31.525,33.45
444,31.549999999999997,33.5
445,31.625,33.575
446,31.65,33.65
447,31.65,33.65
448,31.65,33.725
449,31.75,33.775
450,31.85,33.849999999999994
451,31.9,33.900000000000006
452,31.975,33.95
453,31.975,33.95
454,32.05,34.075
455,32.1,34.15
456,32.175,34.2
457,32.300000000000004,34.3
458,32.4,34.525
459,32.475,34.6
460,32.475,34.55
461,32.5,34.55
462,32.625,34.599999999999994
463,32.650000000000006,34.7
464,32.775,34.8
465,32.825,34.9
466,32.900000000000006,34.95
467,32.975,35.05
468,33.10000000000001,35.125
469,33.150000000000006,35.2
470,33.225,35.3
471,33.35,35.4
472,33.400000000000006,35.575
473,33.475,35.650000000000006
474,33.575,35.7
475,33.775,35.9
476,33.85,36.0
477,33.975,36.125
478,34.05,36.2
479,34.175,36.3
480,34.400000000000006,36.6
481,34.8,37.025000000000006
482,35.075,37.35
483,35.125,37.425
484,34.825,37.075
485,34.775,36.9
486,34.975,37.099999999999994
487,34.975,37.175000000000004
488,34.975,37.15
489,35.1,37.25
490,35.35,37.55
491,35.425,37.650000000000006
492,35.325,37.475
493,35.45,37.55
494,35.650000000000006,37.775
495,35.85,38.074999999999996
496,35.95,38.2
497,36.025,38.25
498,36.075,38.275
499,36.175,38.35
500,36.3,38.425000000000004
501,36.4,38.575
502,36.5,38.7
503,36.575,38.849999999999994
504,36.650000000000006,38.925
505,36.75,39.025000000000006
506,36.85,39.2
507,36.975,39.324999999999996
508,37.125,39.475
509,37.150000000000006,39.525
510,37.25,39.650000000000006
511,37.3,39.675000000000004
512,37.325,39.725
513,37.425,39.8
514,37.575,40.0
515,37.77499999999999,40.275
516,37.95,40.45
517,37.974999999999994,40.45
518,37.974999999999994,40.425000000000004
519,37.95,40.425000000000004
520,37.975,40.5
521,38.15,40.824999999999996
522,38.4,41.05
523,38.675,41.225
524,38.825,41.400000000000006
525,38.975,41.675
526,39.2,41.925000000000004
527,39.150000000000006,41.8
528,38.724999999999994,41.4
529,38.675,41.275
530,38.849999999999994,41.4
531,39.05,41.75
532,39.1,41.8
533,39.1,41.8
534,39.175,41.925000000000004
535,39.325,42.05
536,39.375,42.125
537,39.55,42.325
538,39.925000000000004,42.775
539,40.325,43.05
540,40.224999999999994,43.05
541,39.95,42.825
542,39.9,42.7
543,39.900000000000006,42.725
544,40.05,42.875
545,40.125,42.925000000000004
546,40.199999999999996,43.0
547,40.25,43.0
548,40.325,43.075
549,40.400000000000006,43.3
550,40.65,43.575
551,40.775000000000006,43.75
552,40.8,43.8
553,40.900000000000006,43.85
554,41.05,43.875
555,41.125,43.975
556,41.199999999999996,44.10000000000001
557,41.349999999999994,44.275
558,41.45,44.375
559,41.6,44.52499999999999
560,42.075,44.925
561,42.3,45.2
562,42.525,45.4
563,42.7,45.6
564,42.825,45.7
565,42.875,45.75
566,42.9,45.75
567,42.9,45.8
568,43.05,45.900000000000006
569,43.225,46.10000000000001
570,43.25,46.175
571,43.3,46.175
572,43.3,46.150000000000006
573,43.3,46.150000000000006
574,43.325,46.3
575,43.325,46.3
576,43.375,46.275
577,43.400000000000006,46.275
578,43.400000000000006,46.4
579,43.575,46.525000000000006
580,43.699999999999996,46.625
581,43.849999999999994,46.725
582,43.925000000000004,46.9
583,44.05,46.949999999999996
584,44.1,47.0
585,44.22500000000001,47.150000000000006
586,44.325,47.225
587,44.375,47.35
588,44.5,47.4
589,44.525000000000006,47.4
590,44.525000000000006,47.45
591,44.575,47.474999999999994
592,44.699999999999996,47.675000000000004
593,44.849999999999994,47.825
594,45.05,48.02499999999999
595,45.074999999999996,48.075
596,45.074999999999996,48.0
597,45.0,47.925
598,44.89999999999999,47.875
599,44.95,47.949999999999996
600,45.099999999999994,48.150000000000006
601,45.375,48.324999999999996
602,45.574999999999996,48.575
603,45.7,48.625
604,45.6,48.625
605,45.525,48.474999999999994
606,45.5,48.474999999999994
607,45.65,48.525000000000006
608,45.75,48.725
609,45.675,48.75
610,45.675,48.75
611,45.65,48.7
612,45.65,48.725
613,45.75,48.825
614,45.825,48.9
615,45.925000000000004,49.0
616,46.025000000000006,49.075
617,46.12499999999999,49.175000000000004
618,46.2,49.175000000000004
619,46.224999999999994,49.275
620,46.325,49.324999999999996
621,46.4,49.5
622,46.5,49.62500000000001
623,46.6,49.650000000000006
624,46.675,49.8
625,46.775000000000006,49.9
626,46.775000000000006,49.9
627,46.775000000000006,49.875
628,46.75,49.875
629,46.75,49.875
630,46.8,49.9
631,46.849999999999994,49.974999999999994
632,47.00000000000001,50.075
633,47.025000000000006,50.150000000000006
634,47.025000000000006,50.175000000000004
635,47.074999999999996,50.175000000000004
636,47.15,50.275
637,47.15,50.3
638,47.2,50.4
639,47.275000000000006,50.474999999999994
640,47.349999999999994,50.55
641,47.475,50.625
642,47.55,50.75
643,47.650000000000006,50.8
644,47.7,50.875
645,47.775000000000006,50.95
646,47.875,51.0
647,47.875,51.025000000000006
648,47.9,51.125
649,47.95,51.150000000000006
650,48.05,51.25
651,48.125,51.275
652,48.150000000000006,51.3
653,48.150000000000006,51.324999999999996
654,48.224999999999994,51.4
655,48.275000000000006,51.5
656,48.425000000000004,51.575
657,48.6,51.775
658,48.650000000000006,51.87499999999999
659,48.650000000000006,51.87499999999999
660,48.574999999999996,51.824999999999996
661,48.550000000000004,51.75
662,48.5,51.75
663,48.525000000000006,51.775
664,48.55,51.825
665,48.62499999999999,51.925000000000004
666,48.75,52.02499999999999
667,48.85,52.099999999999994
668,48.925,52.175000000000004
669,48.95,52.2
670,48.975,52.225
671,48.975,52.275
672,49.0,52.3
673,49.074999999999996,52.349999999999994
674,49.1,52.4
675,49.150000000000006,52.474999999999994
676,49.275000000000006,52.575
677,49.375,52.7
678,49.474999999999994,52.775
679,49.5,52.8
680,49.5,52.8
681,49.5,52.8
682,49.45,52.8
683,49.475,52.8
684,49.5,52.824999999999996
685,49.525000000000006,52.875
686,49.6,52.95
687,49.7,52.97500000000001
688,49.75,53.025000000000006
689,49.775000000000006,53.12500000000001
690,49.85,53.175000000000004
691,49.85,53.2
692,49.875,53.25
693,49.974999999999994,53.349999999999994
694,50.05,53.400000000000006
695,50.175,53.525000000000006
696,50.300000000000004,53.725
697,50.55,53.89999999999999
698,50.575,53.849999999999994
699,50.49999999999999,53.825
700,50.425,53.75
701,50.375,53.7
702,50.35,53.725
703,50.325,53.725
704,50.425000000000004,53.725
705,50.5,53.775
706,50.525,53.824999999999996
707,50.599999999999994,53.9
708,50.650000000000006,53.974999999999994
709,50.75,54.025000000000006
710,50.775000000000006,54.075
711,50.825,54.125
712,50.825,54.150000000000006
713,50.9,54.175000000000004
714,50.975,54.3
715,51.025,54.349999999999994
716,51.025,54.349999999999994
717,51.05,54.349999999999994
718,51.05,54.425
719,51.099999999999994,54.425
720,51.125,54.45
721,51.175,54.474999999999994
722,51.2,54.55
723,51.275,54.625
724,51.35,54.650000000000006
725,51.425,54.75
726,51.49999999999999,54.849999999999994
727,51.55,54.97500000000001
728,51.675000000000004,55.0
729,51.775,55.0
730,51.8,55.025000000000006
731,52.0,55.05
732,52.05,55.05
733,52.099999999999994,55.05
734,52.05,55.0
735,52.05,55.05
736,52.099999999999994,55.025000000000006
737,52.075,55.05
738,52.075,55.150000000000006
739,52.02499999999999,55.175
740,52.02499999999999,55.175000000000004
741,52.05,55.275
742,52.025,55.324999999999996
743,52.074999999999996,55.3
744,52.1,55.37499999999999
745,52.150000000000006,55.45
746,52.2,55.525000000000006
747,52.224999999999994,55.525000000000006
748,52.224999999999994,55.575
749,52.25,55.625
750,52.349999999999994,55.65
751,52.4,55.675000000000004
752,52.375,55.725
753,52.375,55.725
754,52.525,55.7
755,52.55,55.75
756,52.575,55.75
757,52.525,55.75
758,52.525,55.875
759,52.475,55.875
760,52.45,55.875
761,52.5,55.875
762,52.625,55.925
763,52.77499999999999,56.150000000000006
764,52.85000000000001,56.275
765,52.77499999999999,56.25
766,52.75,56.2
767,52.75,56.150000000000006
768,52.675,56.150000000000006
769,52.8,56.02499999999999
770,52.825,56.05
771,52.849999999999994,56.025000000000006
772,52.849999999999994,56.075
773,52.925,56.075
774,52.900000000000006,56.325
775,52.900000000000006,56.35
776,52.95,56.425
777,53.025000000000006,56.475
778,53.025000000000006,56.45
779,53.1,56.475
780,53.075,56.475
781,53.050000000000004,56.4
782,53.050000000000004,56.4
783,53.050000000000004,56.525
784,53.2,56.574999999999996
785,53.175,56.5
786,53.275000000000006,56.5
787,53.275000000000006,56.7
788,53.325,56.875
789,53.4,56.925
790,53.475,56.974999999999994
791,53.575,57.02499999999999
792,53.625,57.199999999999996
793,53.625,57.175000000000004
794,53.625,57.175000000000004
795,53.575,57.150000000000006
796,53.475,57.10000000000001
797,53.45,57.025000000000006
798,53.45,56.974999999999994
799,53.475,56.95
800,53.5,57.0
801,53.675,57.05
802,53.825,57.150000000000006
803,54.0,57.3
804,54.1,57.5
805,54.275,57.6
806,54.449999999999996,57.65
807,54.475,57.725
808,54.475,57.8
809,54.49999999999999,57.849999999999994
810,54.525,57.900000000000006
811,54.525,57.89999999999999
812,54.55,57.89999999999999
813,54.75,57.974999999999994
814,54.75,58.0
815,54.7,58.02499999999999
816,54.675,58.075
817,54.625,58.275000000000006
818,54.724999999999994,58.325
819,54.875,58.52499999999999
820,54.974999999999994,58.52499999999999
821,55.35,58.7
822,56.175000000000004,59.35
823,56.425000000000004,59.525000000000006
824,56.0,59.099999999999994
825,55.7,58.55
826,55.550000000000004,58.45
827,55.325,58.449999999999996
828,55.325,58.7
829,55.25,58.65
830,55.275,58.65
831,55.275,58.625
832,55.300000000000004,58.625
833,55.449999999999996,58.900000000000006
834,55.99999999999999,59.15
835,55.85,59.025
836,55.575,58.900000000000006
837,55.525,58.824999999999996
838,55.474999999999994,58.849999999999994
839,55.425000000000004,58.925
840,55.425000000000004,58.95
841,55.65,59.00000000000001
842,55.7,59.05
843,55.6,59.05
844,55.6,58.975
845,55.6,58.95
846,55.525,58.95
847,55.5,58.85
848,55.425000000000004,58.87499999999999
849,55.475,58.95
850,55.199999999999996,58.99999999999999
851,55.25,59.125
852,55.300000000000004,59.074999999999996
853,55.325,58.8
854,55.375,58.89999999999999
855,55.4,59.099999999999994
856,55.475,59.075
857,55.75,59.075
858,55.65,59.05
859,55.675,59.05
860,55.62499999999999,59.05
861,55.6,58.974999999999994
862,55.449999999999996,59.050000000000004
863,55.550000000000004,59.075
864,55.7,59.1
865,56.025,59.199999999999996
866,56.099999999999994,59.224999999999994
867,56.125,59.325
868,56.150000000000006,59.400000000000006
869,56.175,59.400000000000006
870,56.175,59.375
871,56.2,59.400000000000006
872,56.300000000000004,59.45
873,56.300000000000004,59.575
874,56.325,59.625
875,56.45,59.675
876,56.4,59.724999999999994
877,56.4,59.724999999999994
878,56.4,59.75
879,56.650000000000006,59.824999999999996
880,56.875,59.875
881,57.224999999999994,60.275000000000006
882,57.6,60.325
883,57.400000000000006,60.25
884,57.1,60.22500000000001
885,57.050000000000004,60.325
886,57.075,60.225
887,57.0,60.375
888,57.025,60.50000000000001
889,57.025,60.50000000000001
890,57.025,60.425
891,57.0,60.349999999999994
892,57.025,60.375
893,56.99999999999999,60.375
894,57.075,60.375
895,57.25,60.349999999999994
896,57.275,60.375
897,57.300000000000004,60.375
898,57.275,60.39999999999999
899,57.3,60.325
900,57.275,60.3
901,57.300000000000004,60.375
902,57.275000000000006,60.45
903,57.25,60.45
904,57.5,60.425
905,57.45,60.425
906,57.25,60.2
907,57.55,60.4
908,57.475,60.375
909,57.375,60.39999999999999
910,57.4,60.7
911,57.449999999999996,60.675000000000004
912,57.4,60.7
913,57.4,60.65
914,57.375,60.6
915,57.449999999999996,60.65
916,57.525,60.675000000000004
917,57.5,60.625
918,57.574999999999996,60.625
919,57.775,60.65
920,57.7,60.675000000000004
921,57.55,60.725
922,57.625,60.925
923,57.55,60.925
924,57.55,60.775
925,57.55,60.75
926,57.55,60.8
927,57.650000000000006,60.8
928,57.574999999999996,60.8
929,57.574999999999996,60.775
930,57.550000000000004,60.775
931,57.6,60.849999999999994
932,57.6,60.9
933,57.6,60.87499999999999
934,57.65,60.825
935,57.65,60.8
936,57.75,60.775000000000006
937,57.775000000000006,60.75
938,57.8,60.75
939,57.8,60.875
940,57.724999999999994,60.825
941,57.724999999999994,60.725
942,57.724999999999994,60.75
943,57.75,60.775
944,57.85,60.9
945,57.925,60.925
946,57.925,60.87499999999999
947,57.87500000000001,60.875
948,57.87500000000001,60.925
949,57.900000000000006,60.95
950,56.95,60.1
951,55.925,59.025
952,55.65,58.725
953,55.65,58.675000000000004
954,55.6,58.550000000000004
955,55.25,58.425
956,55.075,58.2
957,54.9,58.074999999999996
958,54.75,57.875
959,54.550000000000004,57.574999999999996
960,54.475,57.400000000000006
961,54.4,57.2
962,54.25,57.025
963,54.125,56.974999999999994
964,54.0,56.8
965,53.875,56.65
966,53.7,56.525000000000006
967,53.5,56.275000000000006
968,53.224999999999994,56.025
969,52.95,55.75
970,52.55,55.375
971,52.5,55.3
972,52.525,55.324999999999996
973,52.724999999999994,55.599999999999994
974,52.75,55.775000000000006
975,52.900000000000006,55.849999999999994
976,53.125,55.849999999999994
977,53.150000000000006,55.85000000000001
978,53.224999999999994,55.975
979,53.474999999999994,56.5
980,54.224999999999994,56.9
981,55.0,57.7
982,55.824999999999996,58.300000000000004
983,56.375,58.725
984,56.425,58.725
985,56.0,58.575
986,55.275,58.35
987,54.7,57.375
988,53.975,56.849999999999994
989,53.675,56.724999999999994
990,53.724999999999994,56.75
991,53.775000000000006,56.75
992,54.125,56.875
993,54.275,57.099999999999994
994,55.125,57.375
995,55.574999999999996,57.900000000000006
996,56.224999999999994,59.0
997,57.425,59.175000000000004
998,57.14999999999999,59.2
999,56.925000000000004,59.525
1000.00,56.55,59.375
1001.00,55.75,59.150000000000006
1002.00,55.474999999999994,58.699999999999996
1003.00,55.325,58.300000000000004
1004.00,55.35,58.224999999999994
1005.00,55.225,58.15
1006.00,55.2,58.05
1007.00,55.175000000000004,58.0
1008.00,55.025,57.95
1009.00,55.1,57.95
1010.00,55.099999999999994,58.0
1011.00,55.05,57.975
1012.00,55.075,58.050000000000004
1013.00,55.125,58.074999999999996
1014.00,55.175000000000004,58.125
1015.00,55.25,58.275
1016.00,55.35,58.3
1017.00,55.375,58.475
1018.00,55.349999999999994,58.400000000000006
1019.00,55.300000000000004,58.25
1020.00,55.150000000000006,58.1
