wavelength,S7 Unclean 1,S7 Unclean 2,S7 Unclean 3,S7 Unclean 4,S7 Clean 1,S7 Clean 2,S7 Clean 3,S7 Clean 4
190,1.664,1.688,1.687,1.691,1.694,1.693,1.705,1.701
191,1.706,1.73,1.725,1.732,1.727,1.729,1.746,1.742
192,1.739,1.751,1.748,1.756,1.748,1.756,1.77,1.769
193,1.755,1.772,1.772,1.775,1.757,1.777,1.78,1.777
194,1.76,1.778,1.786,1.788,1.769,1.78,1.784,1.782
195,1.775,1.784,1.791,1.791,1.774,1.789,1.786,1.792
196,1.776,1.79,1.798,1.793,1.789,1.791,1.795,1.802
197,1.782,1.794,1.798,1.802,1.794,1.798,1.799,1.803
198,1.788,1.798,1.802,1.805,1.794,1.798,1.802,1.808
199,1.787,1.793,1.801,1.802,1.794,1.799,1.803,1.808
200,1.784,1.785,1.797,1.799,1.783,1.791,1.791,1.798
201,1.773,1.78,1.787,1.79,1.778,1.78,1.786,1.786
202,1.765,1.768,1.773,1.783,1.768,1.772,1.774,1.782
203,1.75,1.755,1.759,1.763,1.754,1.76,1.761,1.763
204,1.731,1.734,1.739,1.745,1.737,1.74,1.742,1.742
205,1.701,1.703,1.711,1.712,1.708,1.714,1.716,1.718
206,1.667,1.669,1.674,1.678,1.68,1.681,1.686,1.685
207,1.625,1.628,1.632,1.633,1.638,1.639,1.644,1.646
208,1.579,1.584,1.585,1.589,1.592,1.595,1.599,1.6
209,1.529,1.532,1.536,1.537,1.543,1.545,1.548,1.551
210,1.478,1.479,1.484,1.487,1.489,1.492,1.495,1.5
211,1.424,1.426,1.432,1.431,1.438,1.438,1.446,1.446
212,1.369,1.372,1.378,1.38,1.382,1.386,1.392,1.394
213,1.319,1.321,1.326,1.33,1.33,1.334,1.34,1.342
214,1.269,1.272,1.276,1.28,1.281,1.285,1.291,1.291
215,1.242,1.259,1.256,1.262,1.26,1.27,1.261,1.275
216,1.211,1.219,1.22,1.229,1.225,1.23,1.234,1.242
217,1.169,1.176,1.18,1.182,1.183,1.186,1.192,1.195
218,1.128,1.133,1.135,1.136,1.139,1.142,1.145,1.149
219,1.086,1.09,1.096,1.096,1.1,1.102,1.106,1.108
220,1.047,1.051,1.055,1.057,1.061,1.064,1.069,1.069
221,1.013,1.016,1.02,1.022,1.027,1.029,1.033,1.035
222,0.984,0.986,0.986,0.989,0.993,0.999,1.001,1.001
223,0.946,0.948,0.95,0.952,0.959,0.963,0.966,0.967
224,0.92,0.923,0.924,0.926,0.934,0.937,0.941,0.942
225,0.902,0.905,0.906,0.907,0.916,0.919,0.922,0.923
226,0.89,0.891,0.894,0.894,0.903,0.906,0.909,0.91
227,0.88,0.883,0.885,0.885,0.895,0.897,0.9,0.901
228,0.879,0.881,0.882,0.883,0.893,0.897,0.896,0.898
229,0.882,0.886,0.884,0.886,0.895,0.903,0.899,0.903
230,0.889,0.891,0.889,0.892,0.901,0.904,0.905,0.907
231,0.897,0.897,0.897,0.896,0.907,0.91,0.911,0.912
232,0.904,0.905,0.906,0.906,0.914,0.919,0.92,0.921
233,0.912,0.913,0.915,0.915,0.925,0.928,0.931,0.929
234,0.921,0.923,0.926,0.925,0.936,0.938,0.942,0.942
235,0.934,0.936,0.939,0.938,0.948,0.949,0.953,0.954
236,0.945,0.948,0.947,0.949,0.959,0.962,0.964,0.965
237,0.956,0.959,0.957,0.961,0.971,0.972,0.976,0.977
238,0.966,0.969,0.968,0.97,0.981,0.982,0.986,0.987
239,0.974,0.977,0.977,0.978,0.988,0.989,0.993,0.994
240,0.979,0.982,0.983,0.983,0.993,0.993,0.998,0.998
241,0.982,0.984,0.986,0.985,0.996,0.998,1,1
242,0.983,0.985,0.986,0.986,0.999,1.002,1.002,1.002
243,0.985,0.986,0.987,0.987,1,1.002,1.004,1.003
244,0.984,0.985,0.986,0.987,0.998,1,1.002,1.003
245,0.97,0.971,0.974,0.974,0.985,0.986,0.989,0.99
246,0.952,0.953,0.955,0.955,0.965,0.969,0.971,0.972
247,0.937,0.938,0.94,0.939,0.951,0.954,0.954,0.957
248,0.923,0.924,0.925,0.922,0.939,0.942,0.943,0.945
249,0.911,0.911,0.911,0.91,0.926,0.93,0.928,0.933
250,0.892,0.895,0.895,0.894,0.909,0.911,0.911,0.914
251,0.866,0.87,0.87,0.871,0.884,0.885,0.886,0.89
252,0.84,0.844,0.844,0.845,0.857,0.859,0.861,0.864
253,0.819,0.822,0.822,0.823,0.835,0.838,0.84,0.841
254,0.8,0.801,0.802,0.802,0.814,0.816,0.818,0.82
255,0.777,0.779,0.781,0.781,0.792,0.795,0.797,0.799
256,0.754,0.757,0.759,0.758,0.771,0.774,0.776,0.778
257,0.731,0.735,0.737,0.737,0.751,0.752,0.757,0.758
258,0.712,0.715,0.717,0.717,0.73,0.732,0.737,0.739
259,0.692,0.694,0.696,0.694,0.71,0.712,0.715,0.718
260,0.676,0.679,0.68,0.68,0.695,0.697,0.7,0.701
261,0.666,0.67,0.671,0.671,0.686,0.689,0.69,0.692
262,0.66,0.663,0.664,0.665,0.683,0.683,0.685,0.686
263,0.653,0.655,0.656,0.656,0.673,0.674,0.677,0.678
264,0.644,0.646,0.647,0.648,0.662,0.665,0.668,0.669
265,0.636,0.638,0.64,0.64,0.653,0.657,0.66,0.661
266,0.626,0.63,0.63,0.631,0.645,0.648,0.651,0.652
267,0.619,0.622,0.623,0.624,0.638,0.64,0.643,0.644
268,0.613,0.617,0.618,0.619,0.632,0.634,0.638,0.639
269,0.609,0.613,0.615,0.615,0.628,0.63,0.633,0.635
270,0.605,0.608,0.611,0.61,0.623,0.626,0.629,0.63
271,0.599,0.603,0.604,0.604,0.618,0.62,0.624,0.625
272,0.597,0.6,0.602,0.602,0.615,0.618,0.621,0.622
273,0.597,0.6,0.603,0.603,0.615,0.618,0.622,0.622
274,0.598,0.601,0.604,0.604,0.615,0.618,0.622,0.622
275,0.597,0.601,0.604,0.603,0.615,0.617,0.621,0.622
276,0.593,0.599,0.6,0.6,0.612,0.615,0.619,0.621
277,0.591,0.596,0.598,0.598,0.61,0.614,0.618,0.619
278,0.59,0.595,0.597,0.598,0.609,0.613,0.618,0.619
279,0.59,0.595,0.597,0.598,0.609,0.613,0.618,0.619
280,0.588,0.592,0.597,0.597,0.608,0.611,0.614,0.618
281,0.583,0.589,0.591,0.594,0.605,0.608,0.613,0.616
282,0.582,0.587,0.59,0.593,0.601,0.606,0.612,0.614
283,0.581,0.586,0.59,0.593,0.601,0.606,0.612,0.614
284,0.581,0.586,0.59,0.592,0.601,0.606,0.612,0.614
285,0.581,0.586,0.59,0.591,0.601,0.605,0.611,0.614
286,0.579,0.584,0.587,0.586,0.601,0.605,0.61,0.61
287,0.578,0.584,0.586,0.586,0.6,0.604,0.608,0.609
288,0.578,0.583,0.585,0.586,0.6,0.603,0.608,0.609
289,0.577,0.583,0.583,0.586,0.597,0.601,0.607,0.607
290,0.572,0.579,0.578,0.581,0.594,0.596,0.601,0.604
291,0.571,0.578,0.576,0.581,0.593,0.595,0.598,0.602
292,0.571,0.578,0.576,0.581,0.591,0.595,0.599,0.601
293,0.571,0.577,0.575,0.581,0.591,0.595,0.599,0.601
294,0.57,0.573,0.575,0.58,0.587,0.593,0.597,0.6
295,0.567,0.572,0.575,0.579,0.584,0.591,0.595,0.598
296,0.567,0.572,0.575,0.574,0.583,0.59,0.595,0.595
297,0.565,0.571,0.574,0.572,0.583,0.589,0.596,0.594
298,0.565,0.571,0.573,0.574,0.583,0.589,0.595,0.594
299,0.567,0.572,0.573,0.574,0.585,0.589,0.595,0.595
300,0.567,0.571,0.573,0.574,0.585,0.589,0.595,0.595
301,0.564,0.57,0.57,0.571,0.584,0.588,0.595,0.594
302,0.561,0.569,0.568,0.569,0.584,0.587,0.594,0.592
303,0.561,0.568,0.568,0.569,0.583,0.586,0.593,0.591
304,0.559,0.564,0.566,0.566,0.581,0.584,0.591,0.59
305,0.555,0.561,0.561,0.566,0.579,0.583,0.589,0.589
306,0.554,0.558,0.56,0.564,0.574,0.578,0.584,0.584
307,0.55,0.555,0.557,0.559,0.572,0.574,0.581,0.58
308,0.547,0.551,0.553,0.555,0.569,0.571,0.577,0.577
309,0.547,0.55,0.552,0.553,0.566,0.57,0.576,0.577
310,0.547,0.55,0.552,0.553,0.567,0.57,0.575,0.577
311,0.546,0.549,0.551,0.553,0.567,0.569,0.574,0.576
312,0.544,0.548,0.55,0.552,0.566,0.569,0.573,0.575
313,0.542,0.546,0.548,0.548,0.564,0.567,0.571,0.573
314,0.54,0.543,0.545,0.546,0.561,0.564,0.568,0.57
315,0.541,0.545,0.547,0.549,0.561,0.565,0.569,0.57
316,0.542,0.546,0.548,0.55,0.562,0.566,0.571,0.571
317,0.539,0.544,0.545,0.547,0.561,0.565,0.569,0.571
318,0.536,0.54,0.542,0.545,0.558,0.562,0.566,0.568
319,0.536,0.54,0.541,0.544,0.557,0.562,0.565,0.567
320,0.536,0.54,0.541,0.543,0.558,0.561,0.565,0.567
321,0.53,0.535,0.536,0.537,0.553,0.556,0.561,0.562
322,0.523,0.529,0.53,0.532,0.546,0.549,0.554,0.555
323,0.522,0.527,0.529,0.53,0.545,0.548,0.553,0.554
324,0.525,0.53,0.531,0.533,0.548,0.55,0.555,0.557
325,0.527,0.531,0.533,0.533,0.548,0.551,0.557,0.559
326,0.528,0.532,0.534,0.534,0.55,0.552,0.557,0.559
327,0.527,0.531,0.533,0.533,0.55,0.552,0.557,0.559
328,0.525,0.529,0.53,0.531,0.547,0.551,0.556,0.556
329,0.522,0.526,0.527,0.528,0.544,0.548,0.553,0.553
330,0.518,0.522,0.524,0.524,0.541,0.544,0.549,0.551
331,0.515,0.519,0.521,0.523,0.539,0.542,0.546,0.548
332,0.515,0.519,0.52,0.522,0.538,0.542,0.546,0.548
333,0.516,0.52,0.522,0.522,0.539,0.542,0.547,0.548
334,0.516,0.519,0.522,0.522,0.54,0.543,0.547,0.549
335,0.515,0.519,0.521,0.522,0.54,0.542,0.545,0.548
336,0.513,0.517,0.518,0.519,0.538,0.54,0.544,0.547
337,0.512,0.516,0.517,0.518,0.537,0.539,0.543,0.545
338,0.512,0.515,0.517,0.518,0.537,0.539,0.543,0.545
339,0.511,0.513,0.515,0.516,0.535,0.538,0.541,0.544
340,0.507,0.51,0.512,0.512,0.533,0.535,0.539,0.541
341,0.504,0.506,0.509,0.509,0.53,0.532,0.536,0.538
342,0.501,0.504,0.506,0.507,0.528,0.531,0.534,0.536
343,0.501,0.504,0.507,0.508,0.529,0.532,0.535,0.538
344,0.504,0.508,0.51,0.512,0.531,0.535,0.539,0.541
345,0.506,0.509,0.512,0.514,0.535,0.535,0.541,0.542
346,0.506,0.509,0.511,0.513,0.535,0.535,0.541,0.542
347,0.502,0.506,0.509,0.511,0.531,0.533,0.538,0.54
348,0.499,0.503,0.506,0.508,0.529,0.532,0.536,0.539
349,0.499,0.502,0.505,0.508,0.528,0.531,0.536,0.537
350,0.497,0.501,0.504,0.506,0.526,0.529,0.535,0.537
351,0.495,0.5,0.502,0.504,0.526,0.527,0.533,0.535
352,0.494,0.499,0.502,0.501,0.525,0.526,0.532,0.534
353,0.493,0.498,0.5,0.501,0.523,0.525,0.531,0.532
354,0.493,0.496,0.499,0.499,0.521,0.525,0.53,0.532
355,0.493,0.496,0.498,0.499,0.52,0.525,0.528,0.532
356,0.494,0.498,0.5,0.502,0.521,0.525,0.531,0.533
357,0.496,0.498,0.501,0.504,0.524,0.526,0.534,0.534
358,0.495,0.498,0.501,0.503,0.522,0.526,0.53,0.534
359,0.493,0.497,0.5,0.501,0.521,0.524,0.53,0.534
360,0.498,0.502,0.505,0.505,0.524,0.526,0.534,0.537
361,0.505,0.509,0.51,0.51,0.533,0.535,0.541,0.542
362,0.506,0.509,0.51,0.512,0.534,0.536,0.542,0.546
363,0.507,0.511,0.51,0.512,0.533,0.534,0.542,0.545
364,0.504,0.507,0.508,0.511,0.531,0.534,0.541,0.545
365,0.501,0.506,0.508,0.509,0.531,0.534,0.538,0.542
366,0.501,0.506,0.507,0.509,0.531,0.534,0.539,0.543
367,0.5,0.505,0.507,0.509,0.53,0.534,0.538,0.54
368,0.497,0.503,0.504,0.505,0.529,0.531,0.536,0.537
369,0.496,0.499,0.503,0.503,0.526,0.53,0.534,0.536
370,0.496,0.499,0.502,0.503,0.526,0.529,0.534,0.536
371,0.495,0.499,0.501,0.503,0.526,0.529,0.534,0.536
372,0.493,0.499,0.501,0.502,0.526,0.529,0.534,0.536
373,0.493,0.497,0.5,0.501,0.525,0.527,0.534,0.533
374,0.492,0.496,0.5,0.501,0.524,0.527,0.532,0.533
375,0.492,0.496,0.498,0.5,0.523,0.527,0.532,0.533
376,0.496,0.501,0.502,0.504,0.529,0.532,0.538,0.539
377,0.5,0.504,0.507,0.507,0.535,0.534,0.544,0.543
378,0.502,0.508,0.512,0.512,0.535,0.535,0.544,0.543
379,0.502,0.508,0.512,0.511,0.535,0.535,0.543,0.543
380,0.502,0.507,0.51,0.51,0.533,0.535,0.542,0.543
381,0.501,0.506,0.509,0.509,0.532,0.535,0.541,0.542
382,0.501,0.506,0.509,0.509,0.533,0.535,0.541,0.543
383,0.501,0.506,0.509,0.51,0.533,0.535,0.542,0.543
384,0.501,0.506,0.509,0.511,0.533,0.536,0.542,0.543
385,0.503,0.506,0.51,0.511,0.535,0.536,0.544,0.545
386,0.504,0.509,0.512,0.513,0.536,0.537,0.544,0.546
387,0.505,0.509,0.512,0.513,0.537,0.538,0.544,0.547
388,0.503,0.509,0.51,0.51,0.536,0.538,0.544,0.547
389,0.503,0.508,0.51,0.51,0.534,0.538,0.543,0.545
390,0.495,0.501,0.503,0.503,0.526,0.53,0.535,0.538
391,0.488,0.496,0.498,0.498,0.521,0.528,0.533,0.534
392,0.486,0.491,0.495,0.497,0.519,0.524,0.532,0.534
393,0.486,0.49,0.494,0.496,0.519,0.524,0.531,0.533
394,0.486,0.491,0.494,0.496,0.519,0.524,0.531,0.533
395,0.486,0.491,0.494,0.495,0.519,0.524,0.529,0.533
396,0.484,0.491,0.494,0.495,0.518,0.522,0.527,0.53
397,0.484,0.49,0.492,0.494,0.517,0.521,0.526,0.527
398,0.484,0.49,0.492,0.493,0.517,0.521,0.526,0.527
399,0.484,0.489,0.492,0.493,0.517,0.521,0.526,0.527
400,0.482,0.487,0.491,0.492,0.517,0.52,0.525,0.526
401,0.482,0.487,0.49,0.492,0.516,0.519,0.522,0.526
402,0.481,0.487,0.49,0.49,0.514,0.519,0.522,0.525
403,0.481,0.486,0.49,0.49,0.515,0.519,0.522,0.525
404,0.482,0.487,0.491,0.491,0.515,0.519,0.522,0.526
405,0.483,0.488,0.491,0.491,0.516,0.519,0.524,0.527
406,0.483,0.488,0.491,0.491,0.515,0.519,0.524,0.527
407,0.482,0.488,0.491,0.491,0.515,0.519,0.523,0.526
408,0.482,0.488,0.49,0.49,0.515,0.518,0.522,0.526
409,0.482,0.487,0.489,0.489,0.515,0.518,0.522,0.525
410,0.482,0.487,0.489,0.489,0.515,0.518,0.522,0.525
411,0.482,0.487,0.49,0.489,0.515,0.518,0.522,0.525
412,0.482,0.487,0.49,0.489,0.514,0.517,0.521,0.524
413,0.482,0.487,0.49,0.489,0.513,0.516,0.521,0.524
414,0.482,0.487,0.49,0.489,0.513,0.516,0.52,0.523
415,0.481,0.487,0.489,0.489,0.512,0.516,0.52,0.522
416,0.48,0.485,0.487,0.489,0.512,0.514,0.519,0.521
417,0.48,0.484,0.487,0.488,0.51,0.513,0.518,0.52
418,0.479,0.483,0.486,0.486,0.509,0.513,0.517,0.519
419,0.479,0.482,0.486,0.485,0.509,0.513,0.517,0.519
420,0.477,0.481,0.484,0.484,0.509,0.512,0.516,0.518
421,0.478,0.481,0.484,0.484,0.509,0.512,0.516,0.518
422,0.478,0.482,0.485,0.485,0.509,0.512,0.516,0.518
423,0.478,0.482,0.485,0.485,0.509,0.512,0.516,0.517
424,0.479,0.482,0.485,0.485,0.508,0.512,0.516,0.517
425,0.479,0.482,0.485,0.485,0.508,0.511,0.515,0.517
426,0.479,0.482,0.485,0.485,0.507,0.511,0.515,0.517
427,0.479,0.482,0.486,0.485,0.507,0.511,0.515,0.517
428,0.479,0.482,0.486,0.485,0.506,0.511,0.515,0.516
429,0.479,0.482,0.486,0.485,0.506,0.51,0.514,0.515
430,0.479,0.482,0.485,0.485,0.506,0.51,0.514,0.515
431,0.478,0.482,0.484,0.485,0.505,0.508,0.514,0.515
432,0.477,0.481,0.483,0.484,0.504,0.508,0.513,0.514
433,0.476,0.481,0.483,0.483,0.503,0.507,0.51,0.513
434,0.476,0.48,0.483,0.483,0.503,0.507,0.51,0.513
435,0.475,0.479,0.482,0.483,0.502,0.507,0.51,0.512
436,0.475,0.478,0.482,0.482,0.502,0.506,0.509,0.511
437,0.473,0.477,0.481,0.482,0.502,0.504,0.509,0.51
438,0.472,0.477,0.481,0.48,0.501,0.503,0.507,0.51
439,0.472,0.476,0.479,0.48,0.5,0.503,0.507,0.51
440,0.472,0.476,0.479,0.48,0.5,0.502,0.507,0.51
441,0.472,0.476,0.478,0.48,0.5,0.502,0.507,0.509
442,0.472,0.476,0.478,0.479,0.498,0.502,0.506,0.507
443,0.471,0.475,0.478,0.479,0.496,0.499,0.504,0.505
444,0.47,0.475,0.477,0.477,0.496,0.499,0.504,0.505
445,0.469,0.475,0.476,0.477,0.495,0.498,0.502,0.505
446,0.469,0.473,0.475,0.476,0.495,0.498,0.502,0.504
447,0.468,0.472,0.474,0.476,0.494,0.498,0.502,0.504
448,0.468,0.472,0.474,0.475,0.494,0.497,0.501,0.504
449,0.468,0.471,0.473,0.474,0.493,0.496,0.5,0.502
450,0.467,0.469,0.473,0.472,0.492,0.495,0.499,0.502
451,0.466,0.469,0.472,0.472,0.491,0.495,0.498,0.502
452,0.465,0.469,0.471,0.472,0.491,0.494,0.497,0.5
453,0.464,0.468,0.471,0.472,0.491,0.494,0.497,0.499
454,0.463,0.467,0.47,0.471,0.49,0.492,0.497,0.499
455,0.463,0.466,0.469,0.469,0.489,0.492,0.496,0.498
456,0.462,0.465,0.469,0.468,0.488,0.491,0.495,0.496
457,0.459,0.463,0.467,0.468,0.486,0.489,0.493,0.496
458,0.458,0.461,0.464,0.465,0.484,0.488,0.492,0.493
459,0.457,0.461,0.463,0.464,0.484,0.487,0.491,0.492
460,0.457,0.461,0.463,0.464,0.484,0.487,0.491,0.492
461,0.457,0.461,0.463,0.464,0.483,0.487,0.491,0.492
462,0.456,0.46,0.462,0.464,0.481,0.485,0.49,0.491
463,0.455,0.46,0.462,0.463,0.48,0.484,0.489,0.49
464,0.453,0.458,0.46,0.461,0.479,0.483,0.487,0.489
465,0.452,0.457,0.46,0.46,0.478,0.481,0.486,0.489
466,0.452,0.456,0.459,0.459,0.478,0.48,0.486,0.488
467,0.451,0.455,0.458,0.459,0.476,0.48,0.485,0.487
468,0.45,0.454,0.457,0.457,0.474,0.479,0.483,0.485
469,0.449,0.453,0.456,0.457,0.473,0.478,0.483,0.484
470,0.447,0.452,0.455,0.455,0.472,0.477,0.481,0.482
471,0.446,0.451,0.453,0.454,0.47,0.476,0.48,0.481
472,0.444,0.45,0.45,0.453,0.47,0.475,0.479,0.481
473,0.442,0.447,0.45,0.452,0.47,0.474,0.477,0.48
474,0.442,0.447,0.449,0.451,0.468,0.472,0.476,0.479
475,0.44,0.445,0.447,0.448,0.466,0.47,0.474,0.476
476,0.439,0.444,0.446,0.447,0.465,0.469,0.473,0.476
477,0.437,0.442,0.445,0.445,0.464,0.467,0.471,0.474
478,0.436,0.442,0.444,0.444,0.462,0.466,0.471,0.473
479,0.435,0.44,0.442,0.442,0.46,0.466,0.469,0.472
480,0.432,0.437,0.439,0.439,0.457,0.462,0.465,0.468
481,0.427,0.431,0.433,0.434,0.453,0.457,0.46,0.464
482,0.423,0.428,0.429,0.43,0.45,0.454,0.457,0.46
483,0.423,0.427,0.429,0.43,0.45,0.453,0.456,0.459
484,0.427,0.431,0.432,0.434,0.453,0.457,0.46,0.462
485,0.429,0.433,0.434,0.436,0.453,0.457,0.461,0.463
486,0.426,0.43,0.432,0.434,0.45,0.455,0.46,0.461
487,0.425,0.429,0.431,0.433,0.45,0.455,0.459,0.461
488,0.426,0.43,0.432,0.433,0.45,0.455,0.459,0.461
489,0.424,0.428,0.431,0.432,0.449,0.452,0.458,0.46
490,0.42,0.425,0.429,0.428,0.446,0.449,0.455,0.456
491,0.419,0.424,0.427,0.427,0.445,0.449,0.454,0.456
492,0.421,0.425,0.428,0.43,0.446,0.449,0.454,0.457
493,0.421,0.425,0.428,0.429,0.444,0.448,0.453,0.456
494,0.417,0.423,0.424,0.426,0.441,0.447,0.451,0.454
495,0.414,0.42,0.422,0.422,0.438,0.444,0.448,0.451
496,0.412,0.419,0.42,0.42,0.437,0.443,0.446,0.45
497,0.412,0.418,0.42,0.42,0.437,0.442,0.446,0.449
498,0.411,0.418,0.419,0.42,0.436,0.441,0.445,0.448
499,0.411,0.416,0.418,0.42,0.435,0.441,0.444,0.448
500,0.41,0.415,0.417,0.419,0.433,0.439,0.443,0.446
501,0.408,0.414,0.416,0.417,0.432,0.437,0.442,0.445
502,0.406,0.412,0.414,0.416,0.431,0.437,0.44,0.443
503,0.405,0.411,0.412,0.414,0.43,0.435,0.44,0.442
504,0.404,0.41,0.412,0.414,0.43,0.434,0.439,0.441
505,0.404,0.408,0.41,0.412,0.429,0.433,0.437,0.44
506,0.401,0.406,0.408,0.41,0.427,0.431,0.437,0.439
507,0.4,0.405,0.407,0.409,0.425,0.43,0.435,0.437
508,0.398,0.404,0.406,0.408,0.424,0.429,0.433,0.436
509,0.398,0.403,0.405,0.406,0.423,0.428,0.433,0.435
510,0.397,0.401,0.404,0.404,0.422,0.427,0.432,0.434
511,0.397,0.401,0.403,0.404,0.421,0.427,0.43,0.434
512,0.396,0.401,0.402,0.404,0.421,0.427,0.43,0.434
513,0.395,0.4,0.402,0.404,0.421,0.425,0.43,0.433
514,0.392,0.397,0.401,0.401,0.419,0.423,0.428,0.431
515,0.39,0.394,0.397,0.398,0.417,0.421,0.425,0.428
516,0.388,0.392,0.395,0.397,0.416,0.42,0.423,0.426
517,0.388,0.392,0.395,0.396,0.415,0.419,0.423,0.426
518,0.388,0.392,0.396,0.396,0.415,0.419,0.423,0.426
519,0.388,0.393,0.396,0.397,0.415,0.419,0.423,0.426
520,0.386,0.392,0.395,0.396,0.414,0.418,0.423,0.426
521,0.384,0.389,0.392,0.393,0.412,0.415,0.422,0.423
522,0.381,0.387,0.389,0.391,0.41,0.413,0.419,0.421
523,0.378,0.385,0.387,0.388,0.407,0.411,0.415,0.418
524,0.377,0.383,0.385,0.387,0.406,0.409,0.413,0.416
525,0.374,0.38,0.382,0.384,0.403,0.407,0.412,0.415
526,0.372,0.378,0.38,0.381,0.401,0.404,0.409,0.412
527,0.373,0.379,0.381,0.382,0.401,0.406,0.41,0.413
528,0.378,0.383,0.385,0.385,0.405,0.41,0.415,0.418
529,0.379,0.384,0.387,0.388,0.406,0.411,0.416,0.418
530,0.378,0.382,0.385,0.386,0.404,0.408,0.415,0.417
531,0.375,0.379,0.382,0.382,0.401,0.405,0.412,0.414
532,0.374,0.378,0.382,0.382,0.401,0.406,0.412,0.414
533,0.374,0.378,0.382,0.382,0.401,0.406,0.411,0.414
534,0.372,0.377,0.38,0.381,0.4,0.405,0.411,0.413
535,0.371,0.376,0.379,0.38,0.398,0.403,0.409,0.412
536,0.37,0.375,0.378,0.379,0.398,0.403,0.408,0.411
537,0.368,0.373,0.377,0.377,0.396,0.4,0.406,0.409
538,0.363,0.368,0.372,0.373,0.392,0.396,0.402,0.406
539,0.361,0.366,0.368,0.37,0.388,0.392,0.397,0.401
540,0.361,0.366,0.368,0.369,0.388,0.393,0.399,0.401
541,0.364,0.368,0.37,0.372,0.391,0.398,0.402,0.403
542,0.364,0.369,0.372,0.373,0.391,0.398,0.402,0.405
543,0.364,0.369,0.372,0.373,0.391,0.397,0.402,0.406
544,0.362,0.368,0.371,0.371,0.39,0.395,0.4,0.404
545,0.362,0.367,0.37,0.37,0.389,0.394,0.4,0.404
546,0.361,0.366,0.369,0.37,0.389,0.393,0.399,0.403
547,0.361,0.366,0.369,0.37,0.389,0.393,0.398,0.402
548,0.359,0.366,0.369,0.369,0.387,0.392,0.397,0.401
549,0.357,0.363,0.366,0.367,0.386,0.391,0.395,0.401
550,0.355,0.362,0.363,0.364,0.384,0.388,0.393,0.398
551,0.353,0.359,0.362,0.362,0.383,0.387,0.392,0.396
552,0.353,0.358,0.361,0.362,0.382,0.387,0.392,0.395
553,0.352,0.358,0.361,0.361,0.381,0.386,0.391,0.395
554,0.352,0.357,0.361,0.361,0.38,0.385,0.39,0.393
555,0.351,0.356,0.359,0.36,0.379,0.384,0.389,0.392
556,0.35,0.356,0.358,0.358,0.378,0.383,0.388,0.391
557,0.348,0.354,0.357,0.357,0.377,0.381,0.386,0.39
558,0.348,0.352,0.355,0.356,0.376,0.38,0.386,0.388
559,0.346,0.351,0.354,0.355,0.375,0.379,0.384,0.387
560,0.342,0.346,0.35,0.351,0.369,0.374,0.379,0.382
561,0.339,0.344,0.347,0.349,0.368,0.371,0.377,0.379
562,0.337,0.342,0.346,0.347,0.365,0.368,0.375,0.378
563,0.335,0.34,0.343,0.345,0.363,0.367,0.373,0.375
564,0.335,0.339,0.342,0.344,0.362,0.366,0.372,0.374
565,0.335,0.339,0.342,0.343,0.361,0.365,0.371,0.372
566,0.335,0.34,0.342,0.343,0.362,0.365,0.371,0.372
567,0.334,0.339,0.341,0.342,0.362,0.364,0.371,0.373
568,0.332,0.339,0.34,0.342,0.36,0.363,0.369,0.371
569,0.331,0.336,0.338,0.34,0.358,0.361,0.367,0.37
570,0.331,0.336,0.337,0.339,0.358,0.36,0.367,0.37
571,0.331,0.336,0.338,0.339,0.358,0.36,0.367,0.37
572,0.33,0.336,0.338,0.339,0.358,0.36,0.367,0.37
573,0.33,0.336,0.338,0.339,0.358,0.36,0.366,0.37
574,0.329,0.334,0.337,0.337,0.357,0.359,0.366,0.369
575,0.329,0.334,0.337,0.338,0.357,0.36,0.366,0.369
576,0.329,0.334,0.337,0.338,0.357,0.36,0.366,0.369
577,0.329,0.334,0.337,0.338,0.357,0.36,0.366,0.368
578,0.328,0.333,0.336,0.337,0.356,0.359,0.365,0.368
