wavelength,S7 Unclean 1,S7 Unclean 2,S7 Unclean 3,S7 Unclean 4,S7 Clean 1,S7 Clean 2,S7 Clean 3,S7 Clean 4
190,1.664,1.688,1.687,1.691,1.694,1.693,1.705,1.701
191,1.706,1.73,1.725,1.732,1.727,1.729,1.746,1.742
192,1.739,1.751,1.748,1.756,1.748,1.756,1.77,1.769
193,1.755,1.772,1.772,1.775,1.757,1.777,1.78,1.777
194,1.76,1.778,1.786,1.788,1.769,1.78,1.784,1.782
195,1.775,1.784,1.791,1.791,1.774,1.789,1.786,1.792
196,1.776,1.79,1.798,1.793,1.789,1.791,1.795,1.802
197,1.782,1.794,1.798,1.802,1.794,1.798,1.799,1.803
198,1.788,1.798,1.802,1.805,1.794,1.798,1.802,1.808
199,1.787,1.793,1.801,1.802,1.794,1.799,1.803,1.808
200,1.784,1.785,1.797,1.799,1.783,1.791,1.791,1.798
201,1.773,1.78,1.787,1.79,1.778,1.78,1.786,1.786
202,1.765,1.768,1.773,1.783,1.768,1.772,1.774,1.782
203,1.75,1.755,1.759,1.763,1.754,1.76,1.761,1.763
204,1.731,1.734,1.739,1.745,1.737,1.74,1.742,1.742
205,1.701,1.703,1.711,1.712,1.708,1.714,1.716,1.718
206,1.667,1.669,1.674,1.678,1.68,1.681,1.686,1.685
207,1.625,1.628,1.632,1.633,1.638,1.639,1.644,1.646
208,1.579,1.584,1.585,1.589,1.592,1.595,1.599,1.6
209,1.529,1.532,1.536,1.537,1.543,1.545,1.548,1.551
210,1.478,1.479,1.484,1.487,1.489,1.492,1.495,1.5
211,1.424,1.426,1.432,1.431,1.438,1.438,1.446,1.446
212,1.369,1.372,1.378,1.38,1.382,1.386,1.392,1.394
213,1.319,1.321,1.326,1.33,1.33,1.334,1.34,1.342
214,1.269,1.272,1.276,1.28,1.281,1.285,1.291,1.291
215,1.242,1.259,1.256,1.262,1.26,1.27,1.261,1.275
216,1.211,1.219,1.22,1.229,1.225,1.23,1.234,1.242
217,1.169,1.176,1.18,1.182,1.183,1.186,1.192,1.195
218,1.128,1.133,1.135,1.136,1.139,1.142,1.145,1.149
219,1.086,1.09,1.096,1.096,1.1,1.102,1.106,1.108
220,1.047,1.051,1.055,1.057,1.061,1.064,1.069,1.069
221,1.013,1.016,1.02,1.022,1.027,1.029,1.033,1.035
222,0.984,0.986,0.986,0.989,0.993,0.999,1.001,1.001
223,0.946,0.948,0.95,0.952,0.959,0.963,0.966,0.967
224,0.92,0.923,0.924,0.926,0.934,0.937,0.941,0.942
225,0.902,0.905,0.906,0.907,0.916,0.919,0.922,0.923
226,0.89,0.891,0.894,0.894,0.903,0.906,0.909,0.91
227,0.88,0.883,0.885,0.885,0.895,0.897,0.9,0.901
228,0.879,0.881,0.882,0.883,0.893,0.897,0.896,0.898
229,0.882,0.886,0.884,0.886,0.895,0.903,0.899,0.903
230,0.889,0.891,0.889,0.892,0.901,0.904,0.905,0.907
231,0.897,0.897,0.897,0.896,0.907,0.91,0.911,0.912
232,0.904,0.905,0.906,0.906,0.914,0.919,0.92,0.921
233,0.912,0.913,0.915,0.915,0.925,0.928,0.931,0.929
234,0.921,0.923,0.926,0.925,0.936,0.938,0.942,0.942
235,0.934,0.936,0.939,0.938,0.948,0.949,0.953,0.954
236,0.945,0.948,0.947,0.949,0.959,0.962,0.964,0.965
237,0.956,0.959,0.957,0.961,0.971,0.972,0.976,0.977
238,0.966,0.969,0.968,0.97,0.981,0.982,0.986,0.987
239,0.974,0.977,0.977,0.978,0.988,0.989,0.993,0.994
240,0.979,0.982,0.983,0.983,0.993,0.993,0.998,0.998
241,0.982,0.984,0.986,0.985,0.996,0.998,1,1
242,0.983,0.985,0.986,0.986,0.999,1.002,1.002,1.002
243,0.985,0.986,0.987,0.987,1,1.002,1.004,1.003
244,0.984,0.985,0.986,0.987,0.998,1,1.002,1.003
245,0.97,0.971,0.974,0.974,0.985,0.986,0.989,0.99
246,0.952,0.953,0.955,0.955,0.965,0.969,0.971,0.972
247,0.937,0.938,0.94,0.939,0.951,0.954,0.954,0.957
248,0.923,0.924,0.925,0.922,0.939,0.942,0.943,0.945
249,0.911,0.911,0.911,0.91,0.926,0.93,0.928,0.933
250,0.892,0.895,0.895,0.894,0.909,0.911,0.911,0.914
251,0.866,0.87,0.87,0.871,0.884,0.885,0.886,0.89
252,0.84,0.844,0.844,0.845,0.857,0.859,0.861,0.864
253,0.819,0.822,0.822,0.823,0.835,0.838,0.84,0.841
254,0.8,0.801,0.802,0.802,0.814,0.816,0.818,0.82
255,0.777,0.779,0.781,0.781,0.792,0.795,0.797,0.799
256,0.754,0.757,0.759,0.758,0.771,0.774,0.776,0.778
257,0.731,0.735,0.737,0.737,0.751,0.752,0.757,0.758
258,0.712,0.715,0.717,0.717,0.73,0.732,0.737,0.739
259,0.692,0.694,0.696,0.694,0.71,0.712,0.715,0.718
260,0.676,0.679,0.68,0.68,0.695,0.697,0.7,0.701
261,0.666,0.67,0.671,0.671,0.686,0.689,0.69,0.692
262,0.66,0.663,0.664,0.665,0.683,0.683,0.685,0.686
263,0.653,0.655,0.656,0.656,0.673,0.674,0.677,0.678
264,0.644,0.646,0.647,0.648,0.662,0.665,0.668,0.669
265,0.636,0.638,0.64,0.64,0.653,0.657,0.66,0.661
266,0.626,0.63,0.63,0.631,0.645,0.648,0.651,0.652
267,0.619,0.622,0.623,0.624,0.638,0.64,0.643,0.644
268,0.613,0.617,0.618,0.619,0.632,0.634,0.638,0.639
269,0.609,0.613,0.615,0.615,0.628,0.63,0.633,0.635
270,0.605,0.608,0.611,0.61,0.623,0.626,0.629,0.63
271,0.599,0.603,0.604,0.604,0.618,0.62,0.624,0.625
272,0.597,0.6,0.602,0.602,0.615,0.618,0.621,0.622
273,0.597,0.6,0.603,0.603,0.615,0.618,0.622,0.622
274,0.598,0.601,0.604,0.604,0.615,0.618,0.622,0.622
275,0.597,0.601,0.604,0.603,0.615,0.617,0.621,0.622
276,0.593,0.599,0.6,0.6,0.612,0.615,0.619,0.621
277,0.591,0.596,0.598,0.598,0.61,0.614,0.618,0.619
278,0.59,0.595,0.597,0.598,0.609,0.613,0.618,0.619
279,0.59,0.595,0.597,0.598,0.609,0.613,0.618,0.619
280,0.588,0.592,0.597,0.597,0.608,0.611,0.614,0.618
281,0.583,0.589,0.591,0.594,0.605,0.608,0.613,0.616
282,0.582,0.587,0.59,0.593,0.601,0.606,0.612,0.614
283,0.581,0.586,0.59,0.593,0.601,0.606,0.612,0.614
284,0.581,0.586,0.59,0.592,0.601,0.606,0.612,0.614
285,0.581,0.586,0.59,0.591,0.601,0.605,0.611,0.614
286,0.579,0.584,0.587,0.586,0.601,0.605,0.61,0.61
287,0.578,0.584,0.586,0.586,0.6,0.604,0.608,0.609
288,0.578,0.583,0.585,0.586,0.6,0.603,0.608,0.609
289,0.577,0.583,0.583,0.586,0.597,0.601,0.607,0.607
290,0.572,0.579,0.578,0.581,0.594,0.596,0.601,0.604
291,0.571,0.578,0.576,0.581,0.593,0.595,0.598,0.602
292,0.571,0.578,0.576,0.581,0.591,0.595,0.599,0.601
293,0.571,0.577,0.575,0.581,0.591,0.595,0.599,0.601
294,0.57,0.573,0.575,0.58,0.587,0.593,0.597,0.6
295,0.567,0.572,0.575,0.579,0.584,0.591,0.595,0.598
296,0.567,0.572,0.575,0.574,0.583,0.59,0.595,0.595
297,0.565,0.571,0.574,0.572,0.583,0.589,0.596,0.594
298,0.565,0.571,0.573,0.574,0.583,0.589,0.595,0.594
299,0.567,0.572,0.573,0.574,0.585,0.589,0.595,0.595
300,0.567,0.571,0.573,0.574,0.585,0.589,0.595,0.595
301,0.564,0.57,0.57,0.571,0.584,0.588,0.595,0.594
302,0.561,0.569,0.568,0.569,0.584,0.587,0.594,0.592
303,0.561,0.568,0.568,0.569,0.583,0.586,0.593,0.591
304,0.559,0.564,0.566,0.566,0.581,0.584,0.591,0.59
305,0.555,0.561,0.561,0.566,0.579,0.583,0.589,0.589
306,0.554,0.558,0.56,0.564,0.574,0.578,0.584,0.584
307,0.55,0.555,0.557,0.559,0.572,0.574,0.581,0.58
308,0.547,0.551,0.553,0.555,0.569,0.571,0.577,0.577
309,0.547,0.55,0.552,0.553,0.566,0.57,0.576,0.577
310,0.547,0.55,0.552,0.553,0.567,0.57,0.575,0.577
311,0.546,0.549,0.551,0.553,0.567,0.569,0.574,0.576
312,0.544,0.548,0.55,0.552,0.566,0.569,0.573,0.575
313,0.542,0.546,0.548,0.548,0.564,0.567,0.571,0.573
314,0.54,0.543,0.545,0.546,0.561,0.564,0.568,0.57
315,0.541,0.545,0.547,0.549,0.561,0.565,0.569,0.57
316,0.542,0.546,0.548,0.55,0.562,0.566,0.571,0.571
317,0.539,0.544,0.545,0.547,0.561,0.565,0.569,0.571
318,0.536,0.54,0.542,0.545,0.558,0.562,0.566,0.568
319,0.536,0.54,0.541,0.544,0.557,0.562,0.565,0.567
320,0.536,0.54,0.541,0.543,0.558,0.561,0.565,0.567
321,0.53,0.535,0.536,0.537,0.553,0.556,0.561,0.562
322,0.523,0.529,0.53,0.532,0.546,0.549,0.554,0.555
323,0.522,0.527,0.529,0.53,0.545,0.548,0.553,0.554
324,0.525,0.53,0.531,0.533,0.548,0.55,0.555,0.557
325,0.527,0.531,0.533,0.533,0.548,0.551,0.557,0.559
326,0.528,0.532,0.534,0.534,0.55,0.552,0.557,0.559
327,0.527,0.531,0.533,0.533,0.55,0.552,0.557,0.559
328,0.525,0.529,0.53,0.531,0.547,0.551,0.556,0.556
329,0.522,0.526,0.527,0.528,0.544,0.548,0.553,0.553
330,0.518,0.522,0.524,0.524,0.541,0.544,0.549,0.551
331,0.515,0.519,0.521,0.523,0.539,0.542,0.546,0.548
332,0.515,0.519,0.52,0.522,0.538,0.542,0.546,0.548
333,0.516,0.52,0.522,0.522,0.539,0.542,0.547,0.548
334,0.516,0.519,0.522,0.522,0.54,0.543,0.547,0.549
335,0.515,0.519,0.521,0.522,0.54,0.542,0.545,0.548
336,0.513,0.517,0.518,0.519,0.538,0.54,0.544,0.547
337,0.512,0.516,0.517,0.518,0.537,0.539,0.543,0.545
338,0.512,0.515,0.517,0.518,0.537,0.539,0.543,0.545
339,0.511,0.513,0.515,0.516,0.535,0.538,0.541,0.544
340,0.507,0.51,0.512,0.512,0.533,0.535,0.539,0.541
341,0.504,0.506,0.509,0.509,0.53,0.532,0.536,0.538
342,0.501,0.504,0.506,0.507,0.528,0.531,0.534,0.536
343,0.501,0.504,0.507,0.508,0.529,0.532,0.535,0.538
344,0.504,0.508,0.51,0.512,0.531,0.535,0.539,0.541
345,0.506,0.509,0.512,0.514,0.535,0.535,0.541,0.542
346,0.506,0.509,0.511,0.513,0.535,0.535,0.541,0.542
347,0.502,0.506,0.509,0.511,0.531,0.533,0.538,0.54
348,0.499,0.503,0.506,0.508,0.529,0.532,0.536,0.539
349,0.499,0.502,0.505,0.508,0.528,0.531,0.536,0.537
350,0.497,0.501,0.504,0.506,0.526,0.529,0.535,0.537
351,0.495,0.5,0.502,0.504,0.526,0.527,0.533,0.535
352,0.494,0.499,0.502,0.501,0.525,0.526,0.532,0.534
353,0.493,0.498,0.5,0.501,0.523,0.525,0.531,0.532
354,0.493,0.496,0.499,0.499,0.521,0.525,0.53,0.532
355,0.493,0.496,0.498,0.499,0.52,0.525,0.528,0.532
356,0.494,0.498,0.5,0.502,0.521,0.525,0.531,0.533
357,0.496,0.498,0.501,0.504,0.524,0.526,0.534,0.534
358,0.495,0.498,0.501,0.503,0.522,0.526,0.53,0.534
359,0.493,0.497,0.5,0.501,0.521,0.524,0.53,0.534
360,0.498,0.502,0.505,0.505,0.524,0.526,0.534,0.537
361,0.505,0.509,0.51,0.51,0.533,0.535,0.541,0.542
362,0.506,0.509,0.51,0.512,0.534,0.536,0.542,0.546
363,0.507,0.511,0.51,0.512,0.533,0.534,0.542,0.545
364,0.504,0.507,0.508,0.511,0.531,0.534,0.541,0.545
365,0.501,0.506,0.508,0.509,0.531,0.534,0.538,0.542
366,0.501,0.506,0.507,0.509,0.531,0.534,0.539,0.543
367,0.5,0.505,0.507,0.509,0.53,0.534,0.538,0.54
368,0.497,0.503,0.504,0.505,0.529,0.531,0.536,0.537
369,0.496,0.499,0.503,0.503,0.526,0.53,0.534,0.536
370,0.496,0.499,0.502,0.503,0.526,0.529,0.534,0.536
371,0.495,0.499,0.501,0.503,0.526,0.529,0.534,0.536
372,0.493,0.499,0.501,0.502,0.526,0.529,0.534,0.536
373,0.493,0.497,0.5,0.501,0.525,0.527,0.534,0.533
374,0.492,0.496,0.5,0.501,0.524,0.527,0.532,0.533
375,0.492,0.496,0.498,0.5,0.523,0.527,0.532,0.533
376,0.496,0.501,0.502,0.504,0.529,0.532,0.538,0.539
377,0.5,0.504,0.507,0.507,0.535,0.534,0.544,0.543
378,0.502,0.508,0.512,0.512,0.535,0.535,0.544,0.543
379,0.502,0.508,0.512,0.511,0.535,0.535,0.543,0.543
380,0.502,0.507,0.51,0.51,0.533,0.535,0.542,0.543
381,0.501,0.506,0.509,0.509,0.532,0.535,0.541,0.542
382,0.501,0.506,0.509,0.509,0.533,0.535,0.541,0.543
383,0.501,0.506,0.509,0.51,0.533,0.535,0.542,0.543
384,0.501,0.506,0.509,0.511,0.533,0.536,0.542,0.543
385,0.503,0.506,0.51,0.511,0.535,0.536,0.544,0.545
386,0.504,0.509,0.512,0.513,0.536,0.537,0.544,0.546
387,0.505,0.509,0.512,0.513,0.537,0.538,0.544,0.547
388,0.503,0.509,0.51,0.51,0.536,0.538,0.544,0.547
389,0.503,0.508,0.51,0.51,0.534,0.538,0.543,0.545
390,0.495,0.501,0.503,0.503,0.526,0.53,0.535,0.538
391,0.488,0.496,0.498,0.498,0.521,0.528,0.533,0.534
392,0.486,0.491,0.495,0.497,0.519,0.524,0.532,0.534
393,0.486,0.49,0.494,0.496,0.519,0.524,0.531,0.533
394,0.486,0.491,0.494,0.496,0.519,0.524,0.531,0.533
395,0.486,0.491,0.494,0.495,0.519,0.524,0.529,0.533
396,0.484,0.491,0.494,0.495,0.518,0.522,0.527,0.53
397,0.484,0.49,0.492,0.494,0.517,0.521,0.526,0.527
398,0.484,0.49,0.492,0.493,0.517,0.521,0.526,0.527
399,0.484,0.489,0.492,0.493,0.517,0.521,0.526,0.527
400,0.482,0.487,0.491,0.492,0.517,0.52,0.525,0.526
401,0.482,0.487,0.49,0.492,0.516,0.519,0.522,0.526
402,0.481,0.487,0.49,0.49,0.514,0.519,0.522,0.525
403,0.481,0.486,0.49,0.49,0.515,0.519,0.522,0.525
404,0.482,0.487,0.491,0.491,0.515,0.519,0.522,0.526
405,0.483,0.488,0.491,0.491,0.516,0.519,0.524,0.527
406,0.483,0.488,0.491,0.491,0.515,0.519,0.524,0.527
407,0.482,0.488,0.491,0.491,0.515,0.519,0.523,0.526
408,0.482,0.488,0.49,0.49,0.515,0.518,0.522,0.526
409,0.482,0.487,0.489,0.489,0.515,0.518,0.522,0.525
410,0.482,0.487,0.489,0.489,0.515,0.518,0.522,0.525
411,0.482,0.487,0.49,0.489,0.515,0.518,0.522,0.525
412,0.482,0.487,0.49,0.489,0.514,0.517,0.521,0.524
413,0.482,0.487,0.49,0.489,0.513,0.516,0.521,0.524
414,0.482,0.487,0.49,0.489,0.513,0.516,0.52,0.523
415,0.481,0.487,0.489,0.489,0.512,0.516,0.52,0.522
416,0.48,0.485,0.487,0.489,0.512,0.514,0.519,0.521
417,0.48,0.484,0.487,0.488,0.51,0.513,0.518,0.52
418,0.479,0.483,0.486,0.486,0.509,0.513,0.517,0.519
419,0.479,0.482,0.486,0.485,0.509,0.513,0.517,0.519
420,0.477,0.481,0.484,0.484,0.509,0.512,0.516,0.518
421,0.478,0.481,0.484,0.484,0.509,0.512,0.516,0.518
422,0.478,0.482,0.485,0.485,0.509,0.512,0.516,0.518
423,0.478,0.482,0.485,0.485,0.509,0.512,0.516,0.517
424,0.479,0.482,0.485,0.485,0.508,0.512,0.516,0.517
425,0.479,0.482,0.485,0.485,0.508,0.511,0.515,0.517
426,0.479,0.482,0.485,0.485,0.507,0.511,0.515,0.517
427,0.479,0.482,0.486,0.485,0.507,0.511,0.515,0.517
428,0.479,0.482,0.486,0.485,0.506,0.511,0.515,0.516
429,0.479,0.482,0.486,0.485,0.506,0.51,0.514,0.515
430,0.479,0.482,0.485,0.485,0.506,0.51,0.514,0.515
431,0.478,0.482,0.484,0.485,0.505,0.508,0.514,0.515
432,0.477,0.481,0.483,0.484,0.504,0.508,0.513,0.514
433,0.476,0.481,0.483,0.483,0.503,0.507,0.51,0.513
434,0.476,0.48,0.483,0.483,0.503,0.507,0.51,0.513
435,0.475,0.479,0.482,0.483,0.502,0.507,0.51,0.512
436,0.475,0.478,0.482,0.482,0.502,0.506,0.509,0.511
437,0.473,0.477,0.481,0.482,0.502,0.504,0.509,0.51
438,0.472,0.477,0.481,0.48,0.501,0.503,0.507,0.51
439,0.472,0.476,0.479,0.48,0.5,0.503,0.507,0.51
440,0.472,0.476,0.479,0.48,0.5,0.502,0.507,0.51
441,0.472,0.476,0.478,0.48,0.5,0.502,0.507,0.509
442,0.472,0.476,0.478,0.479,0.498,0.502,0.506,0.507
443,0.471,0.475,0.478,0.479,0.496,0.499,0.504,0.505
444,0.47,0.475,0.477,0.477,0.496,0.499,0.504,0.505
445,0.469,0.475,0.476,0.477,0.495,0.498,0.502,0.505
446,0.469,0.473,0.475,0.476,0.495,0.498,0.502,0.504
447,0.468,0.472,0.474,0.476,0.494,0.498,0.502,0.504
448,0.468,0.472,0.474,0.475,0.494,0.497,0.501,0.504
449,0.468,0.471,0.473,0.474,0.493,0.496,0.5,0.502
450,0.467,0.469,0.473,0.472,0.492,0.495,0.499,0.502
451,0.466,0.469,0.472,0.472,0.491,0.495,0.498,0.502
452,0.465,0.469,0.471,0.472,0.491,0.494,0.497,0.5
453,0.464,0.468,0.471,0.472,0.491,0.494,0.497,0.499
454,0.463,0.467,0.47,0.471,0.49,0.492,0.497,0.499
455,0.463,0.466,0.469,0.469,0.489,0.492,0.496,0.498
456,0.462,0.465,0.469,0.468,0.488,0.491,0.495,0.496
457,0.459,0.463,0.467,0.468,0.486,0.489,0.493,0.496
458,0.458,0.461,0.464,0.465,0.484,0.488,0.492,0.493
459,0.457,0.461,0.463,0.464,0.484,0.487,0.491,0.492
460,0.457,0.461,0.463,0.464,0.484,0.487,0.491,0.492
461,0.457,0.461,0.463,0.464,0.483,0.487,0.491,0.492
462,0.456,0.46,0.462,0.464,0.481,0.485,0.49,0.491
463,0.455,0.46,0.462,0.463,0.48,0.484,0.489,0.49
464,0.453,0.458,0.46,0.461,0.479,0.483,0.487,0.489
465,0.452,0.457,0.46,0.46,0.478,0.481,0.486,0.489
466,0.452,0.456,0.459,0.459,0.478,0.48,0.486,0.488
467,0.451,0.455,0.458,0.459,0.476,0.48,0.485,0.487
468,0.45,0.454,0.457,0.457,0.474,0.479,0.483,0.485
469,0.449,0.453,0.456,0.457,0.473,0.478,0.483,0.484
470,0.447,0.452,0.455,0.455,0.472,0.477,0.481,0.482
471,0.446,0.451,0.453,0.454,0.47,0.476,0.48,0.481
472,0.444,0.45,0.45,0.453,0.47,0.475,0.479,0.481
473,0.442,0.447,0.45,0.452,0.47,0.474,0.477,0.48
474,0.442,0.447,0.449,0.451,0.468,0.472,0.476,0.479
475,0.44,0.445,0.447,0.448,0.466,0.47,0.474,0.476
476,0.439,0.444,0.446,0.447,0.465,0.469,0.473,0.476
477,0.437,0.442,0.445,0.445,0.464,0.467,0.471,0.474
478,0.436,0.442,0.444,0.444,0.462,0.466,0.471,0.473
479,0.435,0.44,0.442,0.442,0.46,0.466,0.469,0.472
480,0.432,0.437,0.439,0.439,0.457,0.462,0.465,0.468
481,0.427,0.431,0.433,0.434,0.453,0.457,0.46,0.464
482,0.423,0.428,0.429,0.43,0.45,0.454,0.457,0.46
483,0.423,0.427,0.429,0.43,0.45,0.453,0.456,0.459
484,0.427,0.431,0.432,0.434,0.453,0.457,0.46,0.462
485,0.429,0.433,0.434,0.436,0.453,0.457,0.461,0.463
486,0.426,0.43,0.432,0.434,0.45,0.455,0.46,0.461
487,0.425,0.429,0.431,0.433,0.45,0.455,0.459,0.461
488,0.426,0.43,0.432,0.433,0.45,0.455,0.459,0.461
489,0.424,0.428,0.431,0.432,0.449,0.452,0.458,0.46
490,0.42,0.425,0.429,0.428,0.446,0.449,0.455,0.456
491,0.419,0.424,0.427,0.427,0.445,0.449,0.454,0.456
492,0.421,0.425,0.428,0.43,0.446,0.449,0.454,0.457
493,0.421,0.425,0.428,0.429,0.444,0.448,0.453,0.456
494,0.417,0.423,0.424,0.426,0.441,0.447,0.451,0.454
495,0.414,0.42,0.422,0.422,0.438,0.444,0.448,0.451
496,0.412,0.419,0.42,0.42,0.437,0.443,0.446,0.45
497,0.412,0.418,0.42,0.42,0.437,0.442,0.446,0.449
498,0.411,0.418,0.419,0.42,0.436,0.441,0.445,0.448
499,0.411,0.416,0.418,0.42,0.435,0.441,0.444,0.448
500,0.41,0.415,0.417,0.419,0.433,0.439,0.443,0.446
501,0.408,0.414,0.416,0.417,0.432,0.437,0.442,0.445
502,0.406,0.412,0.414,0.416,0.431,0.437,0.44,0.443
503,0.405,0.411,0.412,0.414,0.43,0.435,0.44,0.442
504,0.404,0.41,0.412,0.414,0.43,0.434,0.439,0.441
505,0.404,0.408,0.41,0.412,0.429,0.433,0.437,0.44
506,0.401,0.406,0.408,0.41,0.427,0.431,0.437,0.439
507,0.4,0.405,0.407,0.409,0.425,0.43,0.435,0.437
508,0.398,0.404,0.406,0.408,0.424,0.429,0.433,0.436
509,0.398,0.403,0.405,0.406,0.423,0.428,0.433,0.435
510,0.397,0.401,0.404,0.404,0.422,0.427,0.432,0.434
511,0.397,0.401,0.403,0.404,0.421,0.427,0.43,0.434
512,0.396,0.401,0.402,0.404,0.421,0.427,0.43,0.434
513,0.395,0.4,0.402,0.404,0.421,0.425,0.43,0.433
514,0.392,0.397,0.401,0.401,0.419,0.423,0.428,0.431
515,0.39,0.394,0.397,0.398,0.417,0.421,0.425,0.428
516,0.388,0.392,0.395,0.397,0.416,0.42,0.423,0.426
517,0.388,0.392,0.395,0.396,0.415,0.419,0.423,0.426
518,0.388,0.392,0.396,0.396,0.415,0.419,0.423,0.426
519,0.388,0.393,0.396,0.397,0.415,0.419,0.423,0.426
520,0.386,0.392,0.395,0.396,0.414,0.418,0.423,0.426
521,0.384,0.389,0.392,0.393,0.412,0.415,0.422,0.423
522,0.381,0.387,0.389,0.391,0.41,0.413,0.419,0.421
523,0.378,0.385,0.387,0.388,0.407,0.411,0.415,0.418
524,0.377,0.383,0.385,0.387,0.406,0.409,0.413,0.416
525,0.374,0.38,0.382,0.384,0.403,0.407,0.412,0.415
526,0.372,0.378,0.38,0.381,0.401,0.404,0.409,0.412
527,0.373,0.379,0.381,0.382,0.401,0.406,0.41,0.413
528,0.378,0.383,0.385,0.385,0.405,0.41,0.415,0.418
529,0.379,0.384,0.387,0.388,0.406,0.411,0.416,0.418
530,0.378,0.382,0.385,0.386,0.404,0.408,0.415,0.417
531,0.375,0.379,0.382,0.382,0.401,0.405,0.412,0.414
532,0.374,0.378,0.382,0.382,0.401,0.406,0.412,0.414
533,0.374,0.378,0.382,0.382,0.401,0.406,0.411,0.414
534,0.372,0.377,0.38,0.381,0.4,0.405,0.411,0.413
535,0.371,0.376,0.379,0.38,0.398,0.403,0.409,0.412
536,0.37,0.375,0.378,0.379,0.398,0.403,0.408,0.411
537,0.368,0.373,0.377,0.377,0.396,0.4,0.406,0.409
538,0.363,0.368,0.372,0.373,0.392,0.396,0.402,0.406
539,0.361,0.366,0.368,0.37,0.388,0.392,0.397,0.401
540,0.361,0.366,0.368,0.369,0.388,0.393,0.399,0.401
541,0.364,0.368,0.37,0.372,0.391,0.398,0.402,0.403
542,0.364,0.369,0.372,0.373,0.391,0.398,0.402,0.405
543,0.364,0.369,0.372,0.373,0.391,0.397,0.402,0.406
544,0.362,0.368,0.371,0.371,0.39,0.395,0.4,0.404
545,0.362,0.367,0.37,0.37,0.389,0.394,0.4,0.404
546,0.361,0.366,0.369,0.37,0.389,0.393,0.399,0.403
547,0.361,0.366,0.369,0.37,0.389,0.393,0.398,0.402
548,0.359,0.366,0.369,0.369,0.387,0.392,0.397,0.401
549,0.357,0.363,0.366,0.367,0.386,0.391,0.395,0.401
550,0.355,0.362,0.363,0.364,0.384,0.388,0.393,0.398
551,0.353,0.359,0.362,0.362,0.383,0.387,0.392,0.396
552,0.353,0.358,0.361,0.362,0.382,0.387,0.392,0.395
553,0.352,0.358,0.361,0.361,0.381,0.386,0.391,0.395
554,0.352,0.357,0.361,0.361,0.38,0.385,0.39,0.393
555,0.351,0.356,0.359,0.36,0.379,0.384,0.389,0.392
556,0.35,0.356,0.358,0.358,0.378,0.383,0.388,0.391
557,0.348,0.354,0.357,0.357,0.377,0.381,0.386,0.39
558,0.348,0.352,0.355,0.356,0.376,0.38,0.386,0.388
559,0.346,0.351,0.354,0.355,0.375,0.379,0.384,0.387
560,0.342,0.346,0.35,0.351,0.369,0.374,0.379,0.382
561,0.339,0.344,0.347,0.349,0.368,0.371,0.377,0.379
562,0.337,0.342,0.346,0.347,0.365,0.368,0.375,0.378
563,0.335,0.34,0.343,0.345,0.363,0.367,0.373,0.375
564,0.335,0.339,0.342,0.344,0.362,0.366,0.372,0.374
565,0.335,0.339,0.342,0.343,0.361,0.365,0.371,0.372
566,0.335,0.34,0.342,0.343,0.362,0.365,0.371,0.372
567,0.334,0.339,0.341,0.342,0.362,0.364,0.371,0.373
568,0.332,0.339,0.34,0.342,0.36,0.363,0.369,0.371
569,0.331,0.336,0.338,0.34,0.358,0.361,0.367,0.37
570,0.331,0.336,0.337,0.339,0.358,0.36,0.367,0.37
571,0.331,0.336,0.338,0.339,0.358,0.36,0.367,0.37
572,0.33,0.336,0.338,0.339,0.358,0.36,0.367,0.37
573,0.33,0.336,0.338,0.339,0.358,0.36,0.366,0.37
574,0.329,0.334,0.337,0.337,0.357,0.359,0.366,0.369
575,0.329,0.334,0.337,0.338,0.357,0.36,0.366,0.369
576,0.329,0.334,0.337,0.338,0.357,0.36,0.366,0.369
577,0.329,0.334,0.337,0.338,0.357,0.36,0.366,0.368
578,0.328,0.333,0.336,0.337,0.356,0.359,0.365,0.368
579,0.327,0.332,0.335,0.335,0.354,0.358,0.364,0.366
580,0.326,0.332,0.334,0.334,0.353,0.356,0.363,0.365
581,0.325,0.331,0.333,0.333,0.353,0.355,0.361,0.364
582,0.324,0.329,0.331,0.332,0.351,0.354,0.36,0.363
583,0.323,0.328,0.331,0.331,0.351,0.353,0.359,0.361
584,0.322,0.328,0.331,0.331,0.35,0.353,0.358,0.36
585,0.322,0.327,0.329,0.329,0.35,0.351,0.357,0.359
586,0.321,0.326,0.327,0.329,0.348,0.351,0.357,0.359
587,0.32,0.324,0.327,0.328,0.348,0.35,0.356,0.358
588,0.32,0.324,0.326,0.327,0.347,0.349,0.354,0.357
589,0.319,0.324,0.326,0.327,0.346,0.349,0.354,0.357
590,0.319,0.324,0.326,0.327,0.346,0.348,0.354,0.357
591,0.319,0.323,0.326,0.326,0.345,0.348,0.354,0.357
592,0.317,0.321,0.324,0.324,0.344,0.347,0.353,0.356
593,0.316,0.32,0.322,0.323,0.343,0.345,0.351,0.354
594,0.313,0.319,0.32,0.321,0.341,0.344,0.349,0.352
595,0.313,0.319,0.32,0.32,0.341,0.344,0.349,0.35
596,0.314,0.319,0.32,0.322,0.341,0.344,0.349,0.351
597,0.315,0.319,0.321,0.322,0.342,0.344,0.349,0.353
598,0.315,0.32,0.322,0.323,0.342,0.344,0.35,0.354
599,0.313,0.319,0.322,0.322,0.342,0.344,0.35,0.353
600,0.312,0.318,0.319,0.32,0.34,0.342,0.348,0.351
601,0.311,0.316,0.318,0.318,0.338,0.341,0.346,0.348
602,0.309,0.314,0.315,0.316,0.336,0.338,0.344,0.346
603,0.309,0.313,0.315,0.315,0.335,0.337,0.343,0.345
604,0.309,0.313,0.315,0.315,0.336,0.339,0.344,0.346
605,0.311,0.315,0.316,0.317,0.337,0.339,0.345,0.346
606,0.31,0.315,0.316,0.317,0.337,0.339,0.345,0.346
607,0.309,0.314,0.316,0.316,0.335,0.338,0.343,0.346
608,0.307,0.312,0.314,0.315,0.335,0.337,0.342,0.345
609,0.307,0.312,0.314,0.314,0.335,0.338,0.343,0.345
610,0.307,0.312,0.314,0.315,0.335,0.338,0.343,0.345
611,0.307,0.312,0.315,0.315,0.335,0.338,0.343,0.345
612,0.308,0.312,0.315,0.315,0.335,0.338,0.343,0.345
613,0.306,0.311,0.314,0.314,0.335,0.337,0.342,0.345
614,0.305,0.311,0.313,0.313,0.334,0.336,0.341,0.344
615,0.305,0.31,0.312,0.312,0.333,0.336,0.341,0.343
616,0.305,0.309,0.311,0.312,0.331,0.334,0.34,0.342
617,0.304,0.308,0.311,0.311,0.331,0.334,0.339,0.341
618,0.304,0.308,0.31,0.311,0.33,0.333,0.339,0.34
619,0.303,0.308,0.31,0.31,0.329,0.333,0.338,0.34
620,0.302,0.307,0.309,0.309,0.329,0.331,0.337,0.339
621,0.3,0.306,0.308,0.307,0.328,0.331,0.336,0.338
622,0.299,0.305,0.307,0.307,0.328,0.33,0.335,0.337
623,0.299,0.304,0.306,0.306,0.327,0.329,0.334,0.336
624,0.298,0.303,0.305,0.306,0.326,0.329,0.334,0.335
625,0.297,0.302,0.304,0.305,0.325,0.328,0.332,0.335
626,0.297,0.302,0.304,0.305,0.325,0.328,0.333,0.335
627,0.298,0.302,0.305,0.305,0.326,0.328,0.333,0.335
628,0.298,0.302,0.305,0.305,0.326,0.328,0.333,0.335
629,0.298,0.302,0.304,0.305,0.325,0.328,0.333,0.335
630,0.297,0.302,0.304,0.304,0.325,0.327,0.333,0.335
631,0.297,0.301,0.304,0.304,0.324,0.326,0.332,0.334
632,0.296,0.301,0.302,0.302,0.323,0.325,0.331,0.333
633,0.295,0.3,0.302,0.302,0.323,0.325,0.33,0.332
634,0.295,0.3,0.302,0.302,0.322,0.325,0.33,0.332
635,0.295,0.299,0.302,0.302,0.322,0.325,0.33,0.332
636,0.294,0.299,0.301,0.301,0.322,0.324,0.329,0.332
637,0.294,0.298,0.3,0.301,0.322,0.324,0.329,0.331
638,0.293,0.298,0.3,0.3,0.321,0.323,0.329,0.331
639,0.293,0.297,0.299,0.299,0.32,0.323,0.328,0.33
640,0.291,0.296,0.299,0.299,0.32,0.322,0.328,0.329
641,0.291,0.295,0.298,0.299,0.319,0.321,0.326,0.328
642,0.29,0.295,0.297,0.297,0.319,0.32,0.325,0.327
643,0.29,0.295,0.297,0.296,0.317,0.32,0.325,0.326
644,0.289,0.294,0.296,0.296,0.317,0.32,0.324,0.326
645,0.288,0.293,0.295,0.295,0.316,0.319,0.323,0.325
646,0.288,0.293,0.294,0.295,0.315,0.318,0.323,0.325
647,0.288,0.293,0.294,0.295,0.315,0.318,0.322,0.325
648,0.287,0.292,0.294,0.294,0.315,0.318,0.322,0.324
649,0.286,0.292,0.293,0.293,0.315,0.317,0.321,0.323
650,0.285,0.291,0.293,0.292,0.314,0.316,0.321,0.323
651,0.285,0.29,0.292,0.292,0.313,0.316,0.32,0.322
652,0.285,0.29,0.292,0.292,0.313,0.315,0.319,0.322
653,0.285,0.289,0.292,0.292,0.313,0.315,0.319,0.321
654,0.284,0.289,0.291,0.291,0.313,0.314,0.319,0.321
655,0.284,0.288,0.291,0.29,0.312,0.314,0.318,0.32
656,0.284,0.287,0.289,0.289,0.311,0.313,0.317,0.32
657,0.282,0.286,0.288,0.288,0.31,0.311,0.315,0.318
658,0.282,0.285,0.287,0.287,0.309,0.311,0.315,0.317
659,0.282,0.285,0.287,0.287,0.309,0.311,0.315,0.317
660,0.282,0.285,0.287,0.287,0.309,0.312,0.316,0.318
661,0.282,0.286,0.288,0.288,0.309,0.312,0.317,0.318
662,0.282,0.286,0.288,0.288,0.309,0.312,0.317,0.319
663,0.282,0.286,0.288,0.288,0.309,0.312,0.317,0.319
664,0.281,0.285,0.288,0.288,0.309,0.312,0.316,0.318
665,0.28,0.285,0.287,0.287,0.308,0.311,0.316,0.318
666,0.279,0.284,0.286,0.286,0.307,0.31,0.315,0.316
667,0.279,0.283,0.285,0.285,0.306,0.309,0.314,0.315
668,0.278,0.283,0.285,0.285,0.306,0.308,0.313,0.314
669,0.278,0.283,0.284,0.285,0.306,0.308,0.313,0.314
670,0.278,0.282,0.284,0.285,0.306,0.308,0.313,0.314
671,0.277,0.282,0.284,0.284,0.306,0.308,0.313,0.314
672,0.277,0.282,0.283,0.284,0.305,0.307,0.312,0.314
673,0.276,0.282,0.283,0.283,0.305,0.306,0.312,0.313
674,0.276,0.281,0.283,0.283,0.305,0.306,0.312,0.313
675,0.276,0.28,0.282,0.282,0.304,0.306,0.311,0.313
676,0.275,0.279,0.281,0.281,0.303,0.306,0.31,0.312
677,0.274,0.278,0.281,0.28,0.302,0.304,0.309,0.311
678,0.274,0.278,0.28,0.28,0.302,0.303,0.308,0.31
679,0.273,0.277,0.28,0.279,0.301,0.303,0.308,0.31
680,0.273,0.277,0.28,0.279,0.301,0.303,0.308,0.31
681,0.273,0.278,0.28,0.279,0.301,0.303,0.308,0.31
682,0.273,0.278,0.28,0.279,0.302,0.303,0.308,0.31
683,0.273,0.278,0.28,0.279,0.301,0.303,0.308,0.31
684,0.272,0.278,0.28,0.279,0.301,0.303,0.308,0.31
685,0.272,0.277,0.279,0.279,0.3,0.303,0.308,0.31
686,0.272,0.277,0.278,0.278,0.3,0.302,0.307,0.309
687,0.271,0.277,0.278,0.278,0.299,0.301,0.307,0.308
688,0.271,0.276,0.278,0.277,0.299,0.3,0.306,0.307
689,0.27,0.275,0.277,0.276,0.299,0.3,0.306,0.307
690,0.27,0.275,0.277,0.276,0.298,0.3,0.305,0.306
691,0.27,0.275,0.276,0.276,0.298,0.3,0.305,0.306
692,0.269,0.274,0.276,0.275,0.298,0.299,0.304,0.306
693,0.269,0.273,0.275,0.275,0.297,0.298,0.303,0.306
694,0.269,0.272,0.275,0.274,0.297,0.298,0.303,0.304
695,0.268,0.271,0.274,0.273,0.296,0.297,0.302,0.303
696,0.266,0.27,0.272,0.272,0.294,0.296,0.301,0.302
697,0.265,0.269,0.27,0.27,0.293,0.294,0.298,0.3
698,0.266,0.269,0.27,0.27,0.292,0.295,0.298,0.299
699,0.266,0.269,0.271,0.27,0.292,0.296,0.298,0.3
700,0.266,0.27,0.272,0.271,0.293,0.296,0.299,0.301
701,0.266,0.27,0.272,0.271,0.294,0.296,0.3,0.301
702,0.266,0.27,0.272,0.271,0.294,0.296,0.3,0.302
703,0.266,0.27,0.272,0.272,0.294,0.297,0.301,0.302
704,0.266,0.27,0.271,0.272,0.293,0.296,0.3,0.302
705,0.265,0.27,0.271,0.271,0.293,0.294,0.299,0.301
706,0.265,0.269,0.271,0.271,0.292,0.294,0.299,0.301
707,0.265,0.268,0.271,0.271,0.292,0.293,0.298,0.299
708,0.264,0.268,0.27,0.27,0.291,0.293,0.297,0.299
709,0.263,0.267,0.269,0.269,0.291,0.293,0.297,0.299
710,0.263,0.267,0.269,0.269,0.29,0.292,0.297,0.298
711,0.263,0.267,0.269,0.268,0.29,0.292,0.296,0.297
712,0.263,0.266,0.269,0.268,0.29,0.292,0.296,0.297
713,0.263,0.266,0.268,0.268,0.289,0.291,0.295,0.297
714,0.261,0.265,0.267,0.267,0.288,0.291,0.295,0.297
715,0.261,0.265,0.267,0.267,0.288,0.29,0.295,0.296
716,0.261,0.264,0.267,0.266,0.288,0.29,0.295,0.296
717,0.261,0.265,0.267,0.266,0.288,0.29,0.295,0.296
718,0.261,0.264,0.266,0.266,0.288,0.29,0.294,0.296
719,0.261,0.264,0.266,0.266,0.288,0.29,0.294,0.295
720,0.261,0.264,0.266,0.266,0.288,0.289,0.294,0.295
721,0.26,0.263,0.266,0.266,0.288,0.289,0.293,0.295
722,0.26,0.263,0.266,0.266,0.287,0.289,0.292,0.294
723,0.259,0.263,0.265,0.265,0.287,0.288,0.292,0.293
724,0.259,0.262,0.265,0.264,0.286,0.287,0.291,0.293
725,0.258,0.261,0.263,0.264,0.286,0.286,0.291,0.292
726,0.257,0.26,0.263,0.263,0.285,0.286,0.29,0.291
727,0.257,0.26,0.262,0.261,0.285,0.286,0.29,0.291
728,0.256,0.26,0.261,0.262,0.284,0.286,0.288,0.289
729,0.256,0.259,0.261,0.262,0.282,0.286,0.287,0.288
730,0.256,0.259,0.26,0.262,0.282,0.285,0.287,0.288
731,0.256,0.259,0.26,0.262,0.279,0.284,0.286,0.287
732,0.256,0.259,0.26,0.262,0.279,0.284,0.285,0.286
733,0.257,0.259,0.26,0.262,0.279,0.284,0.285,0.286
734,0.257,0.258,0.26,0.262,0.28,0.284,0.285,0.286
735,0.257,0.258,0.26,0.262,0.28,0.284,0.285,0.286
736,0.257,0.258,0.261,0.262,0.279,0.284,0.285,0.286
737,0.257,0.258,0.261,0.262,0.279,0.284,0.286,0.286
738,0.256,0.258,0.259,0.261,0.279,0.283,0.285,0.286
739,0.255,0.258,0.259,0.261,0.279,0.283,0.285,0.286
740,0.255,0.258,0.259,0.261,0.279,0.283,0.285,0.286
741,0.254,0.258,0.259,0.259,0.279,0.283,0.285,0.286
742,0.254,0.257,0.258,0.259,0.279,0.282,0.285,0.287
743,0.254,0.257,0.258,0.259,0.279,0.28,0.285,0.287
744,0.253,0.257,0.257,0.259,0.28,0.28,0.285,0.287
745,0.253,0.257,0.257,0.258,0.279,0.28,0.285,0.287
746,0.252,0.256,0.257,0.257,0.279,0.28,0.284,0.287
747,0.252,0.256,0.257,0.257,0.278,0.28,0.284,0.286
748,0.252,0.256,0.257,0.257,0.278,0.28,0.284,0.286
749,0.251,0.255,0.256,0.257,0.278,0.279,0.284,0.286
750,0.251,0.255,0.256,0.257,0.278,0.278,0.283,0.285
751,0.25,0.254,0.256,0.256,0.277,0.278,0.283,0.285
752,0.25,0.254,0.256,0.256,0.277,0.278,0.284,0.285
753,0.25,0.254,0.256,0.256,0.276,0.278,0.284,0.285
754,0.25,0.254,0.255,0.256,0.275,0.277,0.283,0.285
755,0.25,0.254,0.255,0.256,0.275,0.277,0.282,0.284
756,0.25,0.255,0.255,0.256,0.274,0.277,0.282,0.284
757,0.25,0.254,0.255,0.256,0.275,0.277,0.282,0.285
758,0.248,0.254,0.255,0.254,0.275,0.277,0.282,0.285
759,0.248,0.254,0.255,0.255,0.276,0.277,0.282,0.285
760,0.248,0.253,0.255,0.255,0.276,0.278,0.282,0.285
761,0.249,0.252,0.254,0.255,0.275,0.279,0.282,0.283
762,0.248,0.252,0.254,0.256,0.274,0.278,0.281,0.282
763,0.246,0.252,0.251,0.253,0.274,0.277,0.279,0.282
764,0.246,0.25,0.251,0.252,0.272,0.276,0.278,0.281
765,0.246,0.25,0.251,0.252,0.273,0.276,0.279,0.282
766,0.246,0.251,0.252,0.253,0.273,0.276,0.279,0.282
767,0.246,0.251,0.252,0.253,0.273,0.276,0.279,0.282
768,0.246,0.251,0.253,0.253,0.274,0.277,0.28,0.282
769,0.247,0.252,0.254,0.254,0.273,0.276,0.28,0.282
770,0.247,0.252,0.254,0.254,0.272,0.276,0.28,0.281
771,0.247,0.252,0.254,0.254,0.271,0.276,0.28,0.281
772,0.247,0.251,0.254,0.254,0.271,0.276,0.28,0.281
773,0.247,0.251,0.253,0.254,0.27,0.276,0.277,0.281
774,0.244,0.25,0.25,0.253,0.27,0.276,0.279,0.281
775,0.244,0.25,0.25,0.252,0.27,0.276,0.279,0.282
776,0.243,0.25,0.25,0.252,0.27,0.276,0.278,0.282
777,0.243,0.248,0.25,0.251,0.269,0.275,0.278,0.282
778,0.244,0.248,0.25,0.253,0.269,0.275,0.278,0.281
779,0.244,0.248,0.249,0.252,0.268,0.274,0.277,0.281
780,0.244,0.248,0.249,0.252,0.269,0.274,0.277,0.281
781,0.246,0.248,0.249,0.252,0.269,0.275,0.277,0.281
782,0.246,0.248,0.25,0.252,0.269,0.275,0.277,0.281
783,0.245,0.247,0.248,0.251,0.269,0.275,0.277,0.28
784,0.245,0.247,0.247,0.251,0.268,0.273,0.276,0.279
785,0.245,0.247,0.248,0.252,0.268,0.273,0.277,0.279
786,0.245,0.247,0.248,0.252,0.268,0.271,0.276,0.278
787,0.242,0.247,0.247,0.25,0.269,0.271,0.276,0.278
788,0.241,0.245,0.247,0.247,0.268,0.271,0.276,0.278
789,0.241,0.245,0.246,0.247,0.268,0.27,0.276,0.277
790,0.24,0.244,0.246,0.247,0.267,0.268,0.275,0.277
791,0.239,0.244,0.246,0.246,0.267,0.267,0.274,0.276
792,0.238,0.242,0.246,0.245,0.266,0.268,0.273,0.275
793,0.238,0.243,0.246,0.245,0.266,0.268,0.273,0.275
794,0.238,0.243,0.246,0.245,0.266,0.268,0.273,0.276
795,0.238,0.243,0.246,0.245,0.266,0.269,0.274,0.276
796,0.238,0.243,0.246,0.246,0.267,0.269,0.275,0.276
797,0.239,0.244,0.246,0.246,0.268,0.27,0.275,0.276
798,0.239,0.245,0.246,0.247,0.268,0.27,0.275,0.276
799,0.24,0.245,0.247,0.246,0.268,0.269,0.275,0.276
800,0.24,0.245,0.246,0.246,0.268,0.269,0.274,0.276
801,0.24,0.244,0.245,0.246,0.266,0.269,0.272,0.274
802,0.24,0.242,0.245,0.245,0.266,0.267,0.271,0.273
803,0.239,0.241,0.243,0.243,0.264,0.265,0.269,0.272
804,0.237,0.24,0.242,0.242,0.264,0.265,0.268,0.271
805,0.236,0.239,0.241,0.241,0.262,0.263,0.267,0.269
806,0.236,0.239,0.241,0.241,0.261,0.263,0.265,0.267
807,0.236,0.238,0.24,0.24,0.261,0.262,0.266,0.267
808,0.234,0.238,0.24,0.239,0.261,0.262,0.265,0.267
809,0.234,0.238,0.24,0.239,0.261,0.262,0.265,0.267
810,0.234,0.238,0.24,0.239,0.26,0.261,0.265,0.267
811,0.234,0.238,0.24,0.238,0.26,0.261,0.266,0.267
812,0.234,0.238,0.239,0.238,0.259,0.261,0.265,0.266
813,0.234,0.237,0.238,0.238,0.258,0.259,0.264,0.265
814,0.234,0.236,0.238,0.238,0.258,0.259,0.263,0.265
815,0.233,0.236,0.238,0.239,0.259,0.26,0.264,0.265
816,0.233,0.236,0.237,0.238,0.259,0.261,0.264,0.265
817,0.232,0.234,0.237,0.235,0.259,0.261,0.264,0.266
818,0.231,0.233,0.237,0.235,0.258,0.26,0.264,0.266
819,0.229,0.232,0.234,0.235,0.258,0.258,0.263,0.264
820,0.229,0.232,0.234,0.235,0.257,0.258,0.262,0.264
821,0.229,0.231,0.233,0.233,0.254,0.255,0.259,0.26
822,0.224,0.226,0.228,0.228,0.247,0.25,0.252,0.252
823,0.223,0.225,0.226,0.227,0.245,0.248,0.25,0.251
824,0.226,0.228,0.228,0.231,0.248,0.254,0.251,0.254
825,0.231,0.233,0.234,0.232,0.251,0.256,0.254,0.256
826,0.232,0.233,0.235,0.233,0.254,0.256,0.255,0.256
827,0.23,0.234,0.235,0.233,0.253,0.256,0.259,0.26
828,0.228,0.231,0.233,0.232,0.253,0.256,0.259,0.26
829,0.229,0.231,0.233,0.233,0.254,0.256,0.259,0.26
830,0.23,0.231,0.234,0.232,0.254,0.256,0.259,0.26
831,0.23,0.231,0.234,0.233,0.254,0.256,0.259,0.26
832,0.23,0.231,0.234,0.233,0.253,0.255,0.259,0.26
833,0.225,0.231,0.232,0.23,0.252,0.255,0.259,0.259
834,0.224,0.23,0.23,0.228,0.249,0.25,0.254,0.255
835,0.226,0.23,0.23,0.23,0.25,0.251,0.255,0.256
836,0.227,0.23,0.232,0.231,0.252,0.253,0.257,0.258
837,0.227,0.23,0.232,0.232,0.252,0.254,0.257,0.259
838,0.227,0.23,0.232,0.232,0.252,0.254,0.258,0.26
839,0.227,0.23,0.232,0.23,0.252,0.254,0.258,0.261
840,0.227,0.23,0.232,0.23,0.252,0.254,0.259,0.261
841,0.226,0.23,0.232,0.23,0.249,0.252,0.257,0.26
842,0.226,0.229,0.232,0.229,0.249,0.252,0.257,0.26
843,0.226,0.228,0.232,0.229,0.25,0.254,0.257,0.26
844,0.227,0.229,0.232,0.23,0.25,0.254,0.257,0.26
845,0.226,0.229,0.232,0.231,0.249,0.254,0.257,0.26
846,0.226,0.229,0.231,0.231,0.251,0.255,0.257,0.259
847,0.226,0.231,0.232,0.232,0.251,0.256,0.257,0.259
848,0.226,0.23,0.231,0.232,0.252,0.256,0.257,0.261
849,0.227,0.229,0.231,0.232,0.252,0.254,0.258,0.26
850,0.227,0.227,0.231,0.232,0.255,0.255,0.262,0.261
851,0.226,0.226,0.231,0.229,0.254,0.256,0.261,0.26
852,0.226,0.227,0.231,0.23,0.252,0.256,0.26,0.261
853,0.228,0.23,0.233,0.231,0.252,0.256,0.26,0.26
854,0.227,0.23,0.231,0.231,0.252,0.256,0.259,0.259
855,0.226,0.229,0.228,0.231,0.251,0.256,0.259,0.26
856,0.226,0.229,0.229,0.23,0.25,0.255,0.259,0.26
857,0.225,0.229,0.23,0.231,0.247,0.252,0.258,0.258
858,0.225,0.229,0.23,0.231,0.25,0.252,0.258,0.258
859,0.223,0.23,0.23,0.231,0.251,0.252,0.256,0.259
860,0.223,0.23,0.23,0.231,0.251,0.253,0.257,0.259
861,0.226,0.23,0.23,0.231,0.251,0.253,0.257,0.259
862,0.225,0.23,0.23,0.23,0.252,0.254,0.259,0.259
863,0.225,0.23,0.23,0.23,0.251,0.253,0.258,0.259
864,0.225,0.23,0.23,0.228,0.249,0.253,0.257,0.258
865,0.224,0.229,0.229,0.228,0.249,0.251,0.251,0.256
866,0.224,0.229,0.229,0.228,0.248,0.251,0.251,0.254
867,0.224,0.227,0.229,0.228,0.248,0.25,0.251,0.254
868,0.223,0.226,0.229,0.228,0.248,0.249,0.251,0.254
869,0.223,0.226,0.228,0.228,0.247,0.249,0.252,0.254
870,0.223,0.226,0.228,0.228,0.247,0.249,0.252,0.254
871,0.223,0.226,0.228,0.228,0.247,0.249,0.252,0.253
872,0.223,0.226,0.228,0.228,0.247,0.249,0.249,0.253
873,0.221,0.225,0.228,0.226,0.247,0.249,0.249,0.253
874,0.221,0.225,0.228,0.225,0.247,0.249,0.249,0.252
875,0.221,0.224,0.228,0.225,0.246,0.248,0.249,0.252
876,0.22,0.223,0.227,0.225,0.246,0.248,0.249,0.252
877,0.22,0.223,0.227,0.225,0.246,0.248,0.25,0.253
878,0.22,0.223,0.226,0.226,0.246,0.247,0.25,0.252
879,0.22,0.223,0.226,0.225,0.244,0.245,0.249,0.249
880,0.22,0.222,0.225,0.224,0.243,0.243,0.246,0.247
881,0.22,0.22,0.221,0.22,0.242,0.241,0.242,0.244
882,0.22,0.218,0.22,0.22,0.24,0.236,0.24,0.241
883,0.22,0.219,0.22,0.22,0.241,0.241,0.24,0.243
884,0.222,0.219,0.221,0.22,0.241,0.241,0.242,0.249
885,0.219,0.219,0.221,0.219,0.241,0.242,0.243,0.249
886,0.22,0.219,0.223,0.219,0.241,0.241,0.243,0.249
887,0.216,0.219,0.222,0.219,0.241,0.242,0.244,0.249
888,0.215,0.219,0.221,0.219,0.241,0.242,0.244,0.249
889,0.215,0.219,0.221,0.219,0.241,0.242,0.244,0.249
890,0.216,0.219,0.221,0.219,0.241,0.242,0.245,0.249
891,0.217,0.219,0.222,0.22,0.241,0.242,0.245,0.248
892,0.217,0.219,0.221,0.22,0.241,0.242,0.245,0.247
893,0.217,0.219,0.221,0.22,0.241,0.243,0.245,0.247
894,0.217,0.219,0.221,0.22,0.24,0.243,0.245,0.247
895,0.217,0.219,0.221,0.22,0.238,0.242,0.243,0.245
896,0.217,0.219,0.221,0.22,0.238,0.242,0.242,0.245
897,0.217,0.219,0.221,0.22,0.238,0.242,0.243,0.245
898,0.216,0.219,0.221,0.22,0.239,0.241,0.243,0.245
899,0.216,0.22,0.221,0.22,0.239,0.24,0.243,0.244
900,0.216,0.221,0.221,0.22,0.24,0.241,0.243,0.245
901,0.216,0.22,0.221,0.22,0.239,0.24,0.243,0.245
902,0.215,0.219,0.221,0.22,0.239,0.24,0.243,0.246
903,0.215,0.219,0.221,0.22,0.239,0.24,0.243,0.246
904,0.216,0.219,0.22,0.219,0.238,0.24,0.241,0.243
905,0.216,0.219,0.22,0.22,0.239,0.24,0.242,0.243
906,0.217,0.22,0.221,0.223,0.239,0.24,0.244,0.245
907,0.217,0.219,0.221,0.219,0.238,0.24,0.239,0.243
908,0.217,0.219,0.221,0.22,0.238,0.24,0.24,0.244
909,0.216,0.219,0.22,0.221,0.238,0.24,0.242,0.245
910,0.213,0.216,0.219,0.219,0.238,0.24,0.242,0.245
911,0.214,0.216,0.22,0.219,0.238,0.239,0.242,0.245
912,0.214,0.216,0.22,0.219,0.238,0.239,0.242,0.245
913,0.214,0.217,0.219,0.219,0.238,0.239,0.242,0.245
914,0.214,0.217,0.219,0.219,0.238,0.239,0.243,0.245
915,0.214,0.217,0.219,0.218,0.238,0.239,0.242,0.244
916,0.214,0.217,0.219,0.218,0.238,0.238,0.242,0.243
917,0.215,0.218,0.219,0.218,0.238,0.239,0.242,0.243
918,0.215,0.217,0.219,0.219,0.237,0.239,0.242,0.241
919,0.215,0.216,0.218,0.219,0.236,0.237,0.24,0.241
920,0.215,0.216,0.218,0.219,0.237,0.237,0.24,0.241
921,0.214,0.216,0.218,0.218,0.237,0.238,0.242,0.243
922,0.212,0.215,0.216,0.217,0.236,0.238,0.242,0.243
923,0.212,0.215,0.217,0.217,0.236,0.239,0.242,0.243
924,0.213,0.216,0.218,0.218,0.236,0.239,0.242,0.243
925,0.213,0.216,0.218,0.218,0.236,0.239,0.242,0.243
926,0.213,0.216,0.218,0.218,0.236,0.239,0.242,0.243
927,0.212,0.216,0.218,0.218,0.235,0.238,0.241,0.243
928,0.212,0.217,0.217,0.218,0.235,0.239,0.242,0.243
929,0.213,0.217,0.218,0.218,0.235,0.239,0.242,0.243
930,0.213,0.217,0.218,0.218,0.234,0.239,0.242,0.243
931,0.212,0.216,0.217,0.218,0.234,0.238,0.242,0.243
932,0.212,0.216,0.216,0.217,0.235,0.238,0.242,0.243
933,0.212,0.216,0.216,0.218,0.235,0.239,0.242,0.244
934,0.213,0.216,0.218,0.217,0.235,0.237,0.242,0.244
935,0.213,0.216,0.218,0.217,0.235,0.237,0.241,0.244
936,0.213,0.216,0.219,0.217,0.234,0.237,0.24,0.242
937,0.213,0.216,0.219,0.218,0.234,0.237,0.24,0.242
938,0.213,0.216,0.219,0.218,0.234,0.237,0.24,0.242
939,0.213,0.216,0.218,0.216,0.234,0.237,0.24,0.242
940,0.214,0.216,0.218,0.216,0.235,0.237,0.24,0.243
941,0.214,0.217,0.218,0.218,0.235,0.237,0.239,0.242
942,0.214,0.217,0.218,0.218,0.235,0.237,0.239,0.242
943,0.213,0.217,0.217,0.218,0.235,0.237,0.239,0.242
944,0.212,0.216,0.216,0.217,0.234,0.236,0.239,0.241
945,0.212,0.216,0.216,0.217,0.234,0.235,0.239,0.24
946,0.212,0.216,0.216,0.217,0.234,0.235,0.239,0.241
947,0.212,0.216,0.217,0.217,0.234,0.236,0.239,0.241
948,0.212,0.216,0.217,0.216,0.234,0.236,0.239,0.241
949,0.212,0.216,0.216,0.216,0.234,0.236,0.239,0.241
950,0.218,0.222,0.223,0.223,0.24,0.243,0.247,0.248
951,0.226,0.23,0.231,0.228,0.249,0.25,0.255,0.256
952,0.227,0.232,0.232,0.232,0.251,0.253,0.256,0.259
953,0.228,0.233,0.232,0.233,0.251,0.253,0.256,0.259
954,0.228,0.233,0.235,0.234,0.251,0.253,0.257,0.259
955,0.229,0.234,0.235,0.235,0.254,0.257,0.26,0.261
956,0.231,0.235,0.237,0.236,0.255,0.258,0.261,0.262
957,0.232,0.236,0.238,0.238,0.257,0.258,0.263,0.264
958,0.235,0.237,0.239,0.239,0.258,0.26,0.264,0.265
959,0.237,0.24,0.242,0.241,0.259,0.262,0.266,0.267
960,0.238,0.241,0.244,0.243,0.26,0.263,0.266,0.267
961,0.239,0.243,0.245,0.244,0.261,0.264,0.266,0.267
962,0.239,0.246,0.246,0.245,0.261,0.265,0.268,0.269
963,0.24,0.246,0.246,0.245,0.263,0.266,0.268,0.269
964,0.243,0.247,0.247,0.246,0.264,0.267,0.27,0.27
965,0.244,0.247,0.248,0.248,0.266,0.268,0.27,0.271
966,0.245,0.248,0.249,0.25,0.267,0.268,0.272,0.273
967,0.248,0.25,0.25,0.25,0.268,0.271,0.273,0.274
968,0.25,0.252,0.252,0.252,0.271,0.272,0.275,0.277
969,0.251,0.253,0.255,0.255,0.273,0.273,0.278,0.279
970,0.252,0.257,0.259,0.259,0.277,0.278,0.28,0.283
971,0.253,0.258,0.259,0.259,0.277,0.278,0.28,0.284
972,0.253,0.258,0.259,0.259,0.277,0.278,0.28,0.284
973,0.25,0.255,0.257,0.257,0.275,0.277,0.279,0.282
974,0.25,0.254,0.254,0.256,0.274,0.276,0.279,0.282
975,0.25,0.254,0.253,0.254,0.273,0.274,0.277,0.282
976,0.251,0.254,0.253,0.254,0.271,0.274,0.275,0.28
977,0.25,0.255,0.253,0.254,0.271,0.273,0.275,0.279
978,0.248,0.255,0.253,0.252,0.271,0.273,0.274,0.278
979,0.242,0.252,0.251,0.247,0.268,0.272,0.273,0.273
980,0.242,0.248,0.245,0.244,0.26,0.268,0.265,0.27
981,0.237,0.237,0.24,0.241,0.257,0.254,0.264,0.264
982,0.235,0.233,0.239,0.23,0.256,0.249,0.252,0.255
983,0.229,0.232,0.235,0.228,0.248,0.248,0.251,0.249
984,0.229,0.232,0.235,0.229,0.248,0.246,0.25,0.249
985,0.23,0.232,0.237,0.23,0.249,0.249,0.252,0.258
986,0.23,0.234,0.238,0.234,0.252,0.255,0.259,0.264
987,0.237,0.242,0.245,0.241,0.259,0.26,0.263,0.265
988,0.242,0.246,0.248,0.245,0.263,0.268,0.268,0.272
989,0.243,0.248,0.248,0.246,0.267,0.268,0.272,0.274
990,0.242,0.248,0.248,0.247,0.267,0.268,0.27,0.274
991,0.243,0.248,0.247,0.246,0.266,0.268,0.27,0.273
992,0.242,0.247,0.247,0.244,0.264,0.268,0.265,0.271
993,0.24,0.246,0.245,0.243,0.261,0.265,0.264,0.271
994,0.237,0.241,0.245,0.242,0.253,0.259,0.258,0.265
995,0.228,0.24,0.242,0.239,0.251,0.255,0.252,0.263
996,0.226,0.229,0.234,0.228,0.249,0.25,0.25,0.252
997,0.226,0.229,0.231,0.226,0.237,0.238,0.248,0.241
998,0.225,0.227,0.23,0.228,0.237,0.238,0.251,0.246
999,0.22,0.226,0.229,0.226,0.238,0.241,0.251,0.249
1000.00,0.222,0.227,0.229,0.227,0.241,0.245,0.253,0.252
1001.00,0.223,0.229,0.23,0.231,0.249,0.251,0.257,0.259
1002.00,0.226,0.233,0.234,0.232,0.254,0.253,0.258,0.26
1003.00,0.231,0.237,0.237,0.233,0.255,0.254,0.258,0.26
1004.00,0.231,0.237,0.237,0.235,0.255,0.254,0.258,0.26
1005.00,0.231,0.237,0.237,0.236,0.256,0.257,0.258,0.26
1006.00,0.232,0.238,0.239,0.237,0.256,0.256,0.259,0.261
1007.00,0.232,0.237,0.24,0.237,0.256,0.257,0.26,0.26
1008.00,0.233,0.237,0.24,0.238,0.258,0.257,0.262,0.261
1009.00,0.233,0.237,0.24,0.238,0.256,0.257,0.261,0.261
1010.00,0.233,0.237,0.239,0.237,0.256,0.257,0.261,0.261
1011.00,0.233,0.237,0.239,0.238,0.257,0.257,0.261,0.262
1012.00,0.232,0.237,0.238,0.238,0.256,0.257,0.26,0.262
1013.00,0.232,0.237,0.238,0.238,0.256,0.256,0.261,0.262
1014.00,0.232,0.236,0.238,0.236,0.256,0.256,0.261,0.26
1015.00,0.232,0.233,0.236,0.236,0.255,0.256,0.26,0.26
1016.00,0.232,0.233,0.237,0.236,0.255,0.255,0.258,0.26
1017.00,0.231,0.233,0.234,0.234,0.254,0.255,0.258,0.26
1018.00,0.231,0.233,0.236,0.234,0.254,0.256,0.258,0.26
1019.00,0.231,0.235,0.238,0.234,0.254,0.257,0.258,0.261
1020.00,0.234,0.235,0.238,0.235,0.254,0.26,0.259,0.261
1021.00,0.234,0.236,0.239,0.238,0.255,0.259,0.26,0.262
1022.00,0.236,0.238,0.242,0.239,0.258,0.26,0.262,0.263
1023.00,0.237,0.24,0.242,0.24,0.258,0.262,0.263,0.264
1024.00,0.238,0.243,0.243,0.242,0.259,0.263,0.264,0.267
1025.00,0.239,0.243,0.243,0.243,0.262,0.264,0.268,0.268
1026.00,0.239,0.246,0.244,0.243,0.262,0.264,0.268,0.268
1027.00,0.242,0.246,0.246,0.244,0.263,0.265,0.269,0.27
1028.00,0.242,0.247,0.246,0.245,0.267,0.266,0.271,0.27
1029.00,0.241,0.247,0.246,0.246,0.268,0.267,0.27,0.271
1030.00,0.24,0.247,0.247,0.246,0.268,0.268,0.271,0.272
1031.00,0.241,0.247,0.247,0.246,0.269,0.268,0.272,0.273
1032.00,0.244,0.247,0.248,0.247,0.268,0.268,0.272,0.273
1033.00,0.245,0.248,0.248,0.247,0.267,0.268,0.272,0.273
1034.00,0.245,0.249,0.248,0.247,0.268,0.268,0.273,0.274
1035.00,0.244,0.249,0.249,0.247,0.27,0.269,0.276,0.277
1036.00,0.245,0.25,0.249,0.249,0.27,0.27,0.276,0.277
1037.00,0.246,0.252,0.251,0.253,0.27,0.271,0.276,0.278
1038.00,0.251,0.252,0.253,0.255,0.272,0.273,0.277,0.279
1039.00,0.253,0.253,0.254,0.256,0.273,0.273,0.278,0.279
1040.00,0.255,0.255,0.257,0.256,0.274,0.274,0.278,0.281
1041.00,0.255,0.256,0.258,0.256,0.278,0.278,0.282,0.283
1042.00,0.255,0.256,0.259,0.257,0.278,0.279,0.283,0.283
1043.00,0.255,0.259,0.261,0.261,0.278,0.279,0.285,0.283
1044.00,0.255,0.259,0.262,0.261,0.28,0.283,0.285,0.289
1045.00,0.255,0.259,0.261,0.259,0.28,0.283,0.284,0.289
1046.00,0.256,0.259,0.261,0.259,0.28,0.283,0.284,0.289
1047.00,0.256,0.258,0.261,0.259,0.28,0.282,0.284,0.289
1048.00,0.256,0.259,0.262,0.258,0.28,0.281,0.284,0.289
1049.00,0.256,0.26,0.262,0.258,0.28,0.282,0.285,0.289
1050.00,0.255,0.263,0.262,0.26,0.28,0.282,0.284,0.29
1051.00,0.255,0.263,0.262,0.259,0.279,0.282,0.284,0.29
1052.00,0.259,0.264,0.261,0.26,0.279,0.28,0.284,0.29
1053.00,0.258,0.263,0.259,0.26,0.28,0.281,0.286,0.29
1054.00,0.258,0.263,0.26,0.26,0.282,0.281,0.286,0.29
1055.00,0.259,0.263,0.263,0.262,0.282,0.281,0.286,0.289
1056.00,0.259,0.264,0.265,0.263,0.283,0.282,0.287,0.29
1057.00,0.264,0.268,0.266,0.264,0.287,0.287,0.289,0.292
1058.00,0.267,0.269,0.267,0.271,0.287,0.29,0.29,0.294
1059.00,0.267,0.273,0.273,0.273,0.292,0.298,0.298,0.297
1060.00,0.27,0.274,0.279,0.275,0.297,0.3,0.302,0.303
1061.00,0.272,0.275,0.279,0.277,0.297,0.3,0.303,0.305
1062.00,0.272,0.278,0.281,0.275,0.298,0.3,0.304,0.306
1063.00,0.273,0.278,0.281,0.277,0.298,0.301,0.304,0.307
1064.00,0.274,0.278,0.281,0.277,0.3,0.302,0.304,0.308
1065.00,0.274,0.278,0.283,0.277,0.301,0.302,0.305,0.309
1066.00,0.274,0.279,0.284,0.277,0.301,0.301,0.305,0.31
1067.00,0.276,0.28,0.284,0.284,0.3,0.302,0.305,0.311
1068.00,0.278,0.28,0.284,0.286,0.3,0.302,0.305,0.31
1069.00,0.279,0.281,0.284,0.286,0.301,0.302,0.306,0.312
1070.00,0.278,0.281,0.284,0.286,0.306,0.302,0.308,0.313
1071.00,0.278,0.28,0.285,0.286,0.309,0.309,0.311,0.314
1072.00,0.277,0.282,0.285,0.285,0.309,0.309,0.31,0.315
1073.00,0.278,0.283,0.285,0.284,0.299,0.309,0.311,0.313
1074.00,0.281,0.284,0.285,0.285,0.299,0.31,0.31,0.313
1075.00,0.283,0.284,0.288,0.286,0.304,0.31,0.311,0.317
1076.00,0.283,0.284,0.288,0.286,0.307,0.312,0.312,0.318
1077.00,0.284,0.287,0.29,0.287,0.308,0.31,0.312,0.318
1078.00,0.283,0.287,0.292,0.286,0.311,0.311,0.313,0.32
1079.00,0.285,0.292,0.292,0.288,0.311,0.311,0.313,0.32
1080.00,0.285,0.293,0.289,0.288,0.31,0.307,0.313,0.319
1081.00,0.285,0.292,0.289,0.288,0.31,0.308,0.313,0.319
1082.00,0.284,0.291,0.289,0.289,0.309,0.308,0.314,0.318
1083.00,0.284,0.291,0.295,0.291,0.31,0.309,0.315,0.314
1084.00,0.284,0.293,0.295,0.295,0.311,0.31,0.323,0.318
1085.00,0.285,0.293,0.293,0.294,0.309,0.309,0.322,0.315
1086.00,0.285,0.291,0.292,0.287,0.307,0.308,0.32,0.314
1087.00,0.283,0.287,0.292,0.29,0.307,0.306,0.32,0.313
1088.00,0.284,0.294,0.293,0.289,0.307,0.31,0.321,0.317
1089.00,0.286,0.298,0.293,0.29,0.307,0.311,0.319,0.317
1090.00,0.288,0.298,0.292,0.29,0.314,0.313,0.325,0.318
1091.00,0.29,0.298,0.294,0.29,0.315,0.317,0.326,0.323
1092.00,0.29,0.298,0.297,0.291,0.315,0.318,0.325,0.312
1093.00,0.279,0.292,0.292,0.29,0.315,0.318,0.324,0.312
1094.00,0.28,0.297,0.293,0.291,0.315,0.319,0.322,0.312
1095.00,0.281,0.298,0.293,0.291,0.314,0.318,0.324,0.302
1096.00,0.282,0.298,0.293,0.291,0.317,0.307,0.324,0.303
1097.00,0.285,0.297,0.293,0.29,0.314,0.306,0.326,0.304
1098.00,0.293,0.298,0.293,0.295,0.316,0.31,0.325,0.31
1099.00,0.294,0.299,0.297,0.297,0.321,0.317,0.325,0.315
1100.00,0.155,0.147,0.129,0.09,0.234,0.29,0.292,0.159
