wavelength,S9 Irrad 1,S9 Irrad 10,S9 Irrad 11,S9 Irrad 12,S9 Irrad 13,S9 Irrad 14,S9 Irrad 15,S9 Irrad 2,S9 Irrad 3,S9 Irrad 4,S9 Irrad 5,S9 Irrad 6,S9 Irrad 6 Redo,S9 Irrad 7,S9 Irrad 8,S9 Irrad 9,S9 Postheat,S9 Postheat Day 1,S9 Preheat,blank
190,2.207,2.31725,2.3392500000000003,2.348,2.33025,2.32875,2.30825,2.26875,2.2856,2.2842499999999997,2.29575,2.2895000000000003,2.2912500000000002,2.35075,2.3449999999999998,2.31025,1.6827999999999999,1.7053333333333331,1.6405,1.692
191,2.3075,2.3855,2.4267499999999997,2.4472500000000004,2.3945,2.4017500000000003,2.3729999999999998,2.34775,2.3654,2.3705,2.40525,2.39025,2.38525,2.4387499999999998,2.44025,2.3907499999999997,1.7242000000000002,1.7483333333333333,1.68775,1.736
192,2.39975,2.45725,2.4825,2.498,2.44125,2.4730000000000003,2.4685,2.4002499999999998,2.4298,2.428,2.4385,2.43825,2.45675,2.48825,2.47975,2.4667499999999998,1.7541999999999998,1.7776666666666667,1.713,1.762
193,2.4589999999999996,2.52225,2.5755000000000003,2.55925,2.51425,2.55725,2.52625,2.4619999999999997,2.5186,2.4965,2.5255,2.53275,2.51025,2.5535,2.55475,2.55225,1.7702000000000002,1.8003333333333333,1.741,1.784
194,2.5149999999999997,2.58375,2.61425,2.60525,2.546,2.6182499999999997,2.5475,2.51275,2.563,2.5672499999999996,2.58,2.598,2.572,2.609,2.592,2.56775,1.7752,1.8106666666666669,1.7534999999999998,1.8
195,2.5365,2.614,2.6537499999999996,2.6717500000000003,2.60675,2.6742500000000002,2.5889999999999995,2.57725,2.6138,2.5997500000000002,2.6189999999999998,2.6245000000000003,2.60425,2.6445,2.612,2.6355,1.7802,1.8150000000000002,1.76075,1.8
196,2.56825,2.6495,2.689,2.69725,2.65775,2.693,2.6395,2.6085,2.6344000000000003,2.63725,2.66425,2.681,2.64175,2.7155,2.66575,2.6595,1.7881999999999998,1.8226666666666667,1.7675,1.807
197,2.5865,2.66625,2.723,2.73125,2.69125,2.7175000000000002,2.65275,2.6465,2.6726,2.683,2.6745,2.72325,2.685,2.7744999999999997,2.7117500000000003,2.71,1.7952,1.8293333333333335,1.7705000000000002,1.815
198,2.61825,2.704,2.7705,2.7455000000000003,2.71875,2.7504999999999997,2.6947500000000004,2.6635,2.7322,2.6944999999999997,2.7142500000000003,2.7615,2.7115,2.791,2.7495000000000003,2.74775,1.8008,1.834666666666667,1.7745,1.817
199,2.648,2.752,2.81075,2.7544999999999997,2.74775,2.7750000000000004,2.72075,2.68225,2.7384,2.7295000000000003,2.7234999999999996,2.787,2.7277500000000003,2.807,2.7655000000000003,2.7757500000000004,1.8028,1.8376666666666666,1.77525,1.822
200,2.66025,2.7715,2.81975,2.775,2.765,2.79325,2.729,2.7,2.7536,2.76975,2.765,2.8015,2.75975,2.8129999999999997,2.7795,2.7887500000000003,1.8014,1.8363333333333334,1.77325,1.821
201,2.6759999999999997,2.7832500000000002,2.81975,2.7917499999999995,2.78125,2.80775,2.732,2.72675,2.771,2.7835,2.777,2.8047500000000003,2.7722499999999997,2.8115,2.8045,2.7897499999999997,1.7952,1.8313333333333333,1.76,1.819
202,2.69575,2.79325,2.83325,2.80975,2.811,2.82675,2.74575,2.74425,2.8028,2.80025,2.78875,2.80925,2.783,2.837,2.8182500000000004,2.8057499999999997,1.7890000000000001,1.8216666666666665,1.75075,1.81
203,2.7465,2.8075,2.868,2.844,2.8327500000000003,2.8417499999999998,2.77025,2.75525,2.8190000000000004,2.8235,2.818,2.8347499999999997,2.796,2.8529999999999998,2.859,2.8242499999999997,1.7762,1.8126666666666666,1.738,1.809
204,2.77325,2.8314999999999997,2.89025,2.886,2.8345,2.873,2.815,2.7864999999999998,2.8590000000000004,2.8485,2.843,2.87125,2.81475,2.8815,2.8945,2.85325,1.7628,1.798,1.72325,1.787
205,2.819,2.847,2.91075,2.919,2.8985000000000003,2.9004999999999996,2.8352500000000003,2.822,2.875,2.88375,2.86475,2.89125,2.8289999999999997,2.91075,2.9152499999999995,2.8702500000000004,1.7391999999999999,1.777,1.7005,1.763
206,2.8339999999999996,2.88,2.9212499999999997,2.94475,2.9174999999999995,2.92225,2.8545,2.8447500000000003,2.8850000000000002,2.88725,2.8804999999999996,2.91025,2.8520000000000003,2.93075,2.9507499999999998,2.89275,1.7112000000000003,1.7489999999999999,1.6695,1.737
207,2.8502500000000004,2.88275,2.93375,2.96,2.92275,2.9490000000000003,2.874,2.8625000000000003,2.905,2.90725,2.8957499999999996,2.9212499999999997,2.87225,2.9475,2.9565,2.92325,1.6764,1.711,1.6324999999999998,1.701
208,2.85125,2.88625,2.9445,2.9625000000000004,2.9212499999999997,2.975,2.89725,2.871,2.9238,2.923,2.90525,2.9387499999999998,2.879,2.9485,2.96825,2.9322500000000002,1.6366,1.672,1.589,1.661
209,2.86425,2.9027499999999997,2.95125,2.97275,2.9292499999999997,2.9825000000000004,2.9095,2.8747499999999997,2.9343999999999997,2.9315,2.915,2.9465,2.895,2.9665,2.969,2.9515,1.5886,1.626666666666667,1.5407499999999998,1.615
210,2.87,2.9295,2.9537500000000003,2.98625,2.949,2.99125,2.9204999999999997,2.8925,2.94,2.94325,2.933,2.9507499999999998,2.90325,2.9665,2.97275,2.9655,1.5416,1.579,1.491,1.567
211,2.88825,2.9185,2.9685,2.9905,2.9567500000000004,2.993,2.9245,2.8990000000000005,2.9546,2.9555,2.94475,2.9727500000000004,2.9117499999999996,2.9575,2.9825,2.976,1.491,1.5306666666666668,1.4392500000000001,1.517
212,2.88975,2.9307499999999997,2.9619999999999997,2.997,2.9615,2.98875,2.9295000000000004,2.9185,2.9548,2.96,2.9502499999999996,2.97475,2.91875,2.9707500000000002,2.99825,2.9844999999999997,1.4406,1.4773333333333334,1.38625,1.465
213,2.89425,2.9457500000000003,2.9695,2.98875,2.97,2.99625,2.94025,2.925,2.9634,2.9720000000000004,2.95275,2.97325,2.92725,2.9825,2.99975,2.9857500000000003,1.3925999999999998,1.4293333333333333,1.338,1.416
214,2.914,2.9465000000000003,2.9907500000000002,2.98975,2.9724999999999997,2.9995000000000003,2.95225,2.9387499999999998,2.9661999999999997,2.9745,2.96825,2.97825,2.941,2.9865000000000004,3.0,2.9865,1.3428,1.3803333333333334,1.2850000000000001,1.368
215,3.0,3.0,3.0,3.0,3.0,3.0,3.0,3.0,3.0,3.0,3.0,3.0,3.0,3.0,3.0,3.0,1.3326,1.3686666666666667,1.26875,1.357
216,3.0,3.0,3.0,3.0,3.0,3.0,3.0,3.0,3.0,3.0,3.0,3.0,3.0,3.0,3.0,3.0,1.3044,1.3423333333333334,1.23775,1.326
217,3.0,3.0,3.0,3.0,3.0,3.0,3.0,3.0,3.0,3.0,3.0,3.0,3.0,3.0,3.0,3.0,1.2574,1.2963333333333333,1.1895,1.282
218,3.0,3.0,3.0,3.0,3.0,3.0,3.0,3.0,3.0,3.0,3.0,3.0,3.0,3.0,3.0,3.0,1.2098,1.249,1.1432499999999999,1.238
219,3.0,3.0,3.0,3.0,3.0,3.0,3.0,3.0,3.0,3.0,3.0,3.0,3.0,3.0,3.0,3.0,1.1703999999999999,1.2066666666666668,1.10175,1.196
220,3.0,3.0,3.0,3.0,3.0,3.0,3.0,3.0,3.0,3.0,3.0,3.0,3.0,3.0,3.0,3.0,1.129,1.1680000000000001,1.06025,1.156
221,3.0,3.0,3.0,3.0,3.0,3.0,3.0,3.0,3.0,3.0,3.0,3.0,3.0,3.0,3.0,3.0,1.0928,1.1283333333333332,1.0242499999999999,1.116
222,3.0,3.0,3.0,3.0,3.0,3.0,3.0,3.0,3.0,3.0,3.0,3.0,3.0,3.0,3.0,3.0,1.0594,1.0956666666666666,0.9915,1.088
223,3.0,3.0,3.0,3.0,3.0,3.0,3.0,3.0,3.0,3.0,3.0,3.0,3.0,3.0,3.0,3.0,1.0213999999999999,1.0590000000000002,0.953,1.051
224,3.0,3.0,3.0,3.0,3.0,3.0,3.0,3.0,3.0,3.0,3.0,3.0,3.0,3.0,3.0,3.0,0.9954000000000001,1.0336666666666667,0.9277500000000001,1.025
225,3.0,3.0,3.0,3.0,3.0,3.0,3.0,3.0,3.0,3.0,3.0,3.0,3.0,3.0,3.0,3.0,0.9766,1.015,0.90925,1.006
226,3.0,3.0,3.0,3.0,3.0,3.0,3.0,3.0,3.0,3.0,3.0,3.0,3.0,3.0,3.0,3.0,0.9623999999999999,1.0013333333333334,0.89575,0.992
227,3.0,3.0,3.0,3.0,3.0,3.0,3.0,3.0,3.0,3.0,3.0,3.0,3.0,3.0,3.0,3.0,0.9515999999999998,0.9913333333333334,0.886,0.982
228,3.0,3.0,3.0,3.0,3.0,3.0,3.0,3.0,3.0,3.0,3.0,3.0,3.0,3.0,3.0,3.0,0.9479999999999998,0.9889999999999999,0.8835,0.98
229,3.0,3.0,3.0,3.0,3.0,3.0,3.0,3.0,3.0,3.0,3.0,3.0,3.0,3.0,3.0,3.0,0.9485999999999999,0.9916666666666666,0.8842500000000001,0.984
230,3.0,3.0,3.0,3.0,3.0,3.0,3.0,3.0,3.0,3.0,3.0,3.0,3.0,3.0,3.0,3.0,0.9561999999999999,0.9973333333333333,0.888,0.989
231,3.0,3.0,3.0,3.0,3.0,3.0,3.0,3.0,3.0,3.0,3.0,3.0,3.0,3.0,3.0,3.0,0.9624,1.0003333333333333,0.89275,0.994
232,3.0,3.0,3.0,3.0,3.0,3.0,3.0,3.0,3.0,3.0,3.0,3.0,3.0,3.0,3.0,3.0,0.9703999999999999,1.008333333333333,0.9007499999999999,1.001
233,3.0,3.0,3.0,3.0,3.0,3.0,3.0,3.0,3.0,3.0,3.0,3.0,3.0,3.0,3.0,3.0,0.9788,1.0203333333333333,0.9095,1.012
234,3.0,3.0,3.0,3.0,3.0,3.0,3.0,3.0,3.0,3.0,3.0,3.0,3.0,3.0,3.0,3.0,0.9898,1.0296666666666667,0.92,1.021
235,3.0,3.0,3.0,3.0,3.0,3.0,3.0,3.0,3.0,3.0,3.0,3.0,3.0,3.0,3.0,3.0,1.0016,1.042,0.9299999999999999,1.033
236,3.0,3.0,3.0,3.0,3.0,3.0,3.0,3.0,3.0,3.0,3.0,3.0,3.0,3.0,3.0,3.0,1.012,1.054,0.9424999999999999,1.045
237,3.0,3.0,3.0,3.0,3.0,3.0,3.0,3.0,3.0,3.0,3.0,3.0,3.0,3.0,3.0,3.0,1.0246,1.066,0.9532499999999999,1.056
238,3.0,3.0,3.0,3.0,3.0,3.0,3.0,3.0,3.0,3.0,3.0,3.0,3.0,3.0,3.0,3.0,1.0364,1.0783333333333334,0.964,1.068
239,2.9485,3.0,3.0,3.0,3.0,3.0,3.0,3.0,3.0,3.0,3.0,3.0,3.0,3.0,3.0,3.0,1.0458,1.0873333333333333,0.97325,1.078
240,2.8812499999999996,3.0,3.0,3.0,3.0,3.0,3.0,3.0,3.0,3.0,3.0,3.0,3.0,3.0,3.0,3.0,1.0512000000000001,1.093,0.9805,1.083
241,2.8017499999999997,3.0,3.0,3.0,3.0,3.0,3.0,3.0,3.0,3.0,3.0,3.0,3.0,3.0,3.0,3.0,1.0532,1.0953333333333333,0.98325,1.085
242,2.7335,3.0,3.0,3.0,3.0,3.0,3.0,3.0,3.0,3.0,3.0,3.0,3.0,3.0,3.0,3.0,1.0534,1.096,0.984,1.087
243,2.6715,3.0,3.0,3.0,3.0,3.0,3.0,3.0,3.0,3.0,3.0,3.0,3.0,3.0,3.0,3.0,1.0555999999999999,1.0973333333333333,0.98525,1.089
244,2.60775,3.0,3.0,3.0,3.0,3.0,3.0,3.0,3.0,3.0,3.0,3.0,3.0,3.0,3.0,3.0,1.056,1.0973333333333333,0.98525,1.09
245,2.52675,3.0,3.0,3.0,3.0,3.0,3.0,2.95425,3.0,3.0,3.0,3.0,3.0,3.0,3.0,3.0,1.0490000000000002,1.0926666666666665,0.9775,1.085
246,2.4265000000000003,3.0,3.0,3.0,3.0,3.0,3.0,2.875,2.9926,3.0,3.0,3.0,3.0,3.0,3.0,3.0,1.0319999999999998,1.074,0.962,1.066
247,2.341,3.0,3.0,3.0,3.0,3.0,3.0,2.8019999999999996,2.9356,2.9987500000000002,3.0,3.0,3.0,3.0,3.0,3.0,1.0124,1.0566666666666666,0.9432499999999999,1.049
248,2.27825,3.0,3.0,3.0,3.0,3.0,3.0,2.7417499999999997,2.893,2.97525,3.0,3.0,3.0,3.0,3.0,3.0,0.999,1.0443333333333333,0.929,1.036
249,2.224,3.0,3.0,3.0,3.0,3.0,3.0,2.6830000000000003,2.8462,2.944,2.9995000000000003,3.0,3.0,3.0,3.0,3.0,0.9878,1.030333333333333,0.915,1.022
250,2.16925,3.0,3.0,3.0,3.0,3.0,3.0,2.6075,2.7738000000000005,2.8765,2.9427499999999998,2.9515000000000002,2.9725,3.0,3.0,3.0,0.9704,1.0126666666666668,0.89775,1.005
251,2.10075,3.0,3.0,3.0,3.0,3.0,3.0,2.5195,2.6798,2.78625,2.8635,2.8775000000000004,2.9022499999999996,2.99825,3.0,3.0,0.9490000000000001,0.9916666666666666,0.8744999999999999,0.983
252,2.028,2.976,2.96725,2.99375,3.0,3.0,2.9479999999999995,2.4277499999999996,2.582,2.69125,2.7772499999999996,2.79025,2.83825,2.9335,2.98475,2.9797499999999997,0.9240000000000002,0.9666666666666667,0.8492500000000001,0.957
253,1.96425,2.92525,2.9094999999999995,2.9400000000000004,2.98875,2.95775,2.8897500000000003,2.34875,2.4942,2.6025,2.702,2.71375,2.76425,2.861,2.92225,2.9194999999999998,0.9029999999999999,0.9426666666666667,0.8244999999999999,0.933
254,1.9104999999999999,2.86775,2.858,2.892,2.92675,2.88725,2.82725,2.2795,2.4218,2.5275,2.63175,2.643,2.6985,2.7889999999999997,2.8602499999999997,2.8547499999999997,0.881,0.9193333333333333,0.8035,0.909
255,1.8617500000000002,2.7865,2.7784999999999997,2.8142500000000004,2.85425,2.80875,2.74275,2.2105,2.3474,2.451,2.553,2.5655,2.62425,2.7110000000000003,2.778,2.7750000000000004,0.8581999999999999,0.8986666666666666,0.7842500000000001,0.888
256,1.8117500000000002,2.69825,2.691,2.7264999999999997,2.7755,2.71625,2.65725,2.143,2.268,2.37075,2.4695,2.476,2.53925,2.6212500000000003,2.68475,2.68375,0.8364,0.8773333333333334,0.76475,0.867
257,1.76225,2.6045,2.5962500000000004,2.63325,2.684,2.61575,2.564,2.074,2.1864,2.28775,2.3834999999999997,2.38575,2.44875,2.5300000000000002,2.5825,2.585,0.8146000000000001,0.856,0.74125,0.846
258,1.7140000000000002,2.5105,2.504,2.53975,2.59075,2.5172499999999998,2.47525,2.0092499999999998,2.114,2.20775,2.30075,2.30125,2.3615,2.4414999999999996,2.49275,2.4917499999999997,0.7922,0.835,0.7212500000000001,0.825
259,1.6687499999999997,2.41875,2.4107499999999997,2.444,2.49275,2.4165,2.381,1.9485000000000001,2.0420000000000003,2.13175,2.2215000000000003,2.2177499999999997,2.2745,2.3495,2.4,2.3957500000000005,0.7708,0.814,0.7012499999999999,0.803
260,1.62875,2.3345000000000002,2.326,2.35775,2.4065000000000003,2.33,2.2952500000000002,1.8962499999999998,1.983,2.066,2.1535,2.14825,2.2035,2.2705,2.32075,2.3135,0.7510000000000001,0.7946666666666667,0.6839999999999999,0.785
261,1.6007500000000001,2.2705,2.2645,2.29225,2.3354999999999997,2.2624999999999997,2.2295,1.85625,1.939,2.01675,2.10275,2.0957500000000002,2.14975,2.20825,2.255,2.25,0.7396,0.785,0.67175,0.775
262,1.5827499999999999,2.21475,2.2127499999999998,2.2355,2.2744999999999997,2.2055000000000002,2.1742500000000002,1.8235,1.9064,1.9817500000000001,2.061,2.0535,2.1075,2.15525,2.2030000000000003,2.19425,0.7323999999999999,0.7773333333333333,0.66525,0.769
263,1.5635000000000001,2.16075,2.1605,2.18125,2.217,2.1502499999999998,2.1187500000000004,1.79325,1.8725999999999998,1.9455,2.0184999999999995,2.01625,2.06325,2.1075,2.1487499999999997,2.1412500000000003,0.7262000000000001,0.7676666666666666,0.655,0.758
264,1.5425,2.10175,2.101,2.12025,2.15425,2.0934999999999997,2.05875,1.762,1.8392,1.9055,1.9729999999999999,1.9695,2.014,2.0527499999999996,2.0945,2.08475,0.717,0.7593333333333333,0.646,0.749
265,1.521,2.03825,2.03475,2.0540000000000003,2.08725,2.02775,1.99575,1.72875,1.7998,1.86025,1.926,1.9177499999999998,1.96125,1.9957500000000001,2.03475,2.021,0.7085999999999999,0.7506666666666666,0.6367499999999999,0.74
266,1.49825,1.97625,1.9717500000000001,1.99025,2.0229999999999997,1.96425,1.9340000000000002,1.69625,1.7612,1.81825,1.88025,1.86725,1.907,1.9395,1.9765000000000001,1.96075,0.6980000000000001,0.7416666666666667,0.62775,0.731
267,1.4785,1.92175,1.9165,1.9335,1.9665000000000001,1.90825,1.8815,1.669,1.7284,1.78125,1.8384999999999998,1.8232499999999998,1.8595,1.889,1.9249999999999998,1.9085,0.6894000000000001,0.733,0.61975,0.722
268,1.46325,1.8767500000000001,1.86775,1.88525,1.9180000000000001,1.86125,1.8357500000000002,1.6469999999999998,1.702,1.7505000000000002,1.80625,1.788,1.8202500000000001,1.84725,1.8815,1.86275,0.6832,0.7279999999999999,0.6147499999999999,0.717
269,1.452,1.83825,1.8285,1.84425,1.878,1.822,1.797,1.6292499999999999,1.6809999999999998,1.7262499999999998,1.7782499999999999,1.75925,1.789,1.8135,1.845,1.825,0.679,0.7239999999999999,0.611,0.715
270,1.443,1.8042500000000001,1.794,1.8097499999999997,1.8415000000000001,1.78675,1.7622499999999999,1.6125000000000003,1.6616,1.7045000000000001,1.7527500000000003,1.7325000000000002,1.76075,1.78125,1.8125,1.7912499999999998,0.6742,0.7193333333333333,0.6072500000000001,0.709
271,1.43175,1.7715,1.75925,1.7737500000000002,1.805,1.751,1.7292500000000002,1.59625,1.6421999999999997,1.68225,1.7280000000000002,1.7065000000000001,1.73225,1.7510000000000001,1.7810000000000001,1.75825,0.6690000000000002,0.7136666666666667,0.6015,0.703
272,1.42225,1.741,1.7280000000000002,1.7415,1.7722499999999999,1.7197500000000001,1.69875,1.58275,1.6248,1.663,1.7060000000000002,1.68175,1.705,1.72325,1.7527499999999998,1.72875,0.664,0.709,0.5972500000000001,0.698
273,1.4195,1.7185000000000001,1.705,1.7177499999999999,1.749,1.69725,1.677,1.57525,1.6154,1.6517499999999998,1.69325,1.66675,1.6875,1.7037499999999999,1.7335000000000003,1.70675,0.663,0.7086666666666667,0.597,0.698
274,1.41875,1.701,1.687,1.6997499999999999,1.7289999999999999,1.68,1.6584999999999999,1.5705,1.6096,1.644,1.682,1.65575,1.675,1.6892500000000001,1.7167499999999998,1.68975,0.6632,0.7093333333333334,0.5974999999999999,0.699
275,1.417,1.6837499999999999,1.66775,1.6804999999999999,1.7095,1.66225,1.6397499999999998,1.56425,1.6018000000000001,1.63475,1.67,1.6454999999999997,1.6635,1.673,1.699,1.6727500000000002,0.6626,0.709,0.59625,0.698
276,1.4135,1.6632500000000001,1.647,1.6595,1.6875,1.6412499999999999,1.6205000000000003,1.5550000000000002,1.5926000000000002,1.62325,1.65675,1.63,1.6464999999999999,1.65575,1.68175,1.65325,0.661,0.7076666666666668,0.5934999999999999,0.696
277,1.40975,1.6444999999999999,1.6277500000000003,1.64075,1.6680000000000001,1.62175,1.60225,1.5485,1.5834,1.6127500000000001,1.6447500000000002,1.6175000000000002,1.6305,1.63975,1.6629999999999998,1.6365,0.6566000000000001,0.7026666666666666,0.5902499999999999,0.692
278,1.408,1.6305,1.6135000000000002,1.62575,1.653,1.6067500000000001,1.58725,1.5430000000000001,1.5778,1.6052499999999998,1.637,1.60675,1.61825,1.6267500000000001,1.65,1.6215000000000002,0.6554,0.702,0.5892499999999999,0.691
279,1.40725,1.61875,1.601,1.6127500000000001,1.63925,1.5955000000000001,1.5745,1.5419999999999998,1.5750000000000002,1.59925,1.6294999999999997,1.60025,1.6115,1.617,1.641,1.6105,0.6540000000000001,0.702,0.5887499999999999,0.691
280,1.408,1.60725,1.588,1.6015000000000001,1.6237499999999998,1.5807499999999999,1.5612499999999998,1.53925,1.5694,1.5932499999999998,1.625,1.591,1.6,1.607,1.6294999999999997,1.5985,0.6536,0.7006666666666667,0.58775,0.69
281,1.40775,1.5955000000000001,1.5755000000000001,1.5870000000000002,1.6115000000000002,1.56975,1.55025,1.5374999999999999,1.5661999999999998,1.5885000000000002,1.6165,1.5837500000000002,1.5892500000000003,1.5950000000000002,1.6175000000000002,1.587,0.6504,0.697,0.584,0.686
282,1.4060000000000001,1.584,1.56475,1.57475,1.6004999999999998,1.557,1.53825,1.535,1.5617999999999999,1.583,1.61175,1.57575,1.581,1.5862500000000002,1.60825,1.57725,0.6468,0.6936666666666667,0.5807499999999999,0.682
283,1.4052499999999999,1.5779999999999998,1.5557500000000002,1.5682500000000001,1.5935000000000001,1.55125,1.5327499999999998,1.53525,1.5608,1.583,1.60825,1.5715,1.57875,1.5812499999999998,1.6022500000000002,1.5702500000000001,0.6457999999999999,0.6916666666666665,0.5795,0.681
284,1.4060000000000001,1.573,1.5522500000000001,1.5637499999999998,1.5905,1.5487499999999998,1.52775,1.534,1.5604,1.583,1.60725,1.57025,1.5762500000000002,1.578,1.598,1.56625,0.6442,0.6916666666666665,0.5782499999999999,0.681
285,1.4064999999999999,1.5647499999999999,1.5470000000000002,1.55675,1.5805,1.54,1.52075,1.5335,1.56,1.58075,1.603,1.56875,1.57375,1.57275,1.59225,1.56075,0.6432,0.6916666666666665,0.57775,0.679
286,1.4064999999999999,1.5594999999999999,1.5394999999999999,1.5512500000000002,1.574,1.53225,1.51425,1.53275,1.5584,1.57775,1.6022500000000002,1.5635000000000001,1.56675,1.5675,1.5845,1.5545,0.6392,0.6886666666666666,0.577,0.677
287,1.40725,1.5565,1.53425,1.5447499999999998,1.568,1.52725,1.50925,1.53275,1.558,1.5755,1.59975,1.561,1.56325,1.5645,1.5810000000000002,1.55125,0.6368,0.6866666666666666,0.575,0.673
288,1.412,1.55475,1.5310000000000001,1.54,1.566,1.5265,1.5075,1.53275,1.5582,1.57575,1.5995000000000001,1.5605,1.5627499999999999,1.5625,1.58025,1.5485000000000002,0.6377999999999999,0.6863333333333332,0.5742499999999999,0.673
289,1.41225,1.5519999999999998,1.5265,1.5374999999999999,1.56075,1.52175,1.5014999999999998,1.53275,1.5576,1.576,1.5975000000000001,1.5592500000000002,1.5615,1.5585,1.5782500000000002,1.54475,0.637,0.6846666666666668,0.573,0.671
290,1.41175,1.54375,1.5212500000000002,1.5314999999999999,1.55375,1.5145,1.49525,1.53225,1.5556,1.57275,1.5932500000000003,1.557,1.55725,1.55275,1.5705,1.53775,0.6318,0.6813333333333335,0.57025,0.666
291,1.41175,1.54,1.5145,1.52475,1.5509999999999997,1.5082499999999999,1.49225,1.53225,1.5552,1.5699999999999998,1.58975,1.5534999999999999,1.5515,1.5495,1.56675,1.53425,0.6312,0.6796666666666668,0.5670000000000001,0.665
292,1.41275,1.53675,1.51325,1.5225,1.5485,1.507,1.49025,1.5325,1.5556,1.5705,1.5905,1.5514999999999999,1.55125,1.549,1.5662500000000001,1.53275,0.6299999999999999,0.6786666666666666,0.56575,0.664
293,1.4134999999999998,1.5367499999999998,1.5119999999999998,1.5214999999999999,1.5467499999999998,1.5062499999999999,1.4867500000000002,1.53275,1.5552,1.571,1.5902500000000002,1.5505,1.55025,1.54825,1.56575,1.53175,0.6286,0.6786666666666666,0.56525,0.664
294,1.414,1.5314999999999999,1.50525,1.5145,1.5407499999999998,1.5,1.4825000000000002,1.5302499999999999,1.5532,1.57,1.58875,1.5465,1.5462500000000001,1.5455,1.5607499999999999,1.5262499999999999,0.627,0.6743333333333333,0.56125,0.662
295,1.4124999999999999,1.52725,1.5,1.509,1.5342500000000001,1.4957500000000001,1.47825,1.5287499999999998,1.5528,1.5677499999999998,1.5855,1.5435,1.54225,1.5395,1.5555,1.523,0.624,0.673,0.55925,0.659
