wavelength,Tim Quartz Clear 1,Tim Quartz Clear 2,Tim Quartz Clear 3,Tim Quartz Clear 4,Tim Quartz Dark 1,Tim Quartz Dark 2,Tim Quartz Dark 3,Tim Quartz Dark 4
190,1.151,1.165,1.163,1.164,1.7,1.723,1.719,1.715
191,1.168,1.18,1.173,1.177,1.714,1.723,1.729,1.721
192,1.181,1.186,1.187,1.184,1.728,1.725,1.733,1.725
193,1.186,1.194,1.196,1.192,1.73,1.726,1.739,1.732
194,1.195,1.202,1.2,1.199,1.739,1.735,1.738,1.737
195,1.195,1.204,1.201,1.2,1.74,1.735,1.738,1.737
196,1.199,1.206,1.205,1.202,1.739,1.735,1.736,1.737
197,1.2,1.208,1.207,1.205,1.74,1.735,1.736,1.738
198,1.205,1.213,1.211,1.209,1.74,1.736,1.741,1.737
199,1.205,1.214,1.212,1.209,1.74,1.74,1.74,1.737
200,1.206,1.212,1.211,1.206,1.738,1.739,1.737,1.736
201,1.205,1.209,1.208,1.199,1.732,1.728,1.73,1.726
202,1.197,1.201,1.202,1.195,1.727,1.724,1.73,1.724
203,1.189,1.192,1.193,1.189,1.727,1.723,1.73,1.724
204,1.181,1.184,1.184,1.179,1.725,1.721,1.726,1.724
205,1.166,1.17,1.169,1.167,1.724,1.721,1.721,1.724
206,1.148,1.152,1.151,1.148,1.722,1.719,1.72,1.723
207,1.125,1.129,1.128,1.126,1.719,1.715,1.717,1.714
208,1.098,1.102,1.101,1.099,1.71,1.709,1.705,1.707
209,1.065,1.068,1.07,1.067,1.704,1.701,1.703,1.705
210,1.033,1.036,1.037,1.035,1.694,1.695,1.695,1.698
211,0.998,1.004,1.006,1.001,1.689,1.688,1.689,1.692
212,0.965,0.97,0.972,0.968,1.68,1.681,1.681,1.685
213,0.931,0.936,0.938,0.935,1.673,1.677,1.675,1.679
214,0.901,0.906,0.909,0.905,1.669,1.669,1.667,1.674
215,0.884,0.889,0.89,0.893,1.692,1.71,1.704,1.715
216,0.865,0.868,0.868,0.871,1.712,1.734,1.744,1.751
217,0.843,0.844,0.845,0.844,1.72,1.744,1.747,1.75
218,0.816,0.818,0.819,0.819,1.721,1.744,1.749,1.75
219,0.794,0.797,0.799,0.798,1.72,1.73,1.737,1.745
220,0.773,0.777,0.776,0.777,1.716,1.714,1.732,1.721
221,0.753,0.756,0.757,0.757,1.709,1.695,1.702,1.712
222,0.735,0.738,0.739,0.739,1.694,1.683,1.696,1.687
223,0.711,0.716,0.716,0.715,1.631,1.624,1.648,1.628
224,0.695,0.7,0.7,0.699,1.593,1.589,1.6,1.593
225,0.682,0.687,0.687,0.686,1.566,1.563,1.567,1.565
226,0.671,0.675,0.676,0.675,1.542,1.538,1.541,1.54
227,0.663,0.666,0.666,0.665,1.518,1.515,1.516,1.514
228,0.658,0.661,0.66,0.66,1.507,1.505,1.501,1.505
229,0.657,0.657,0.658,0.657,1.502,1.499,1.497,1.499
230,0.655,0.657,0.655,0.653,1.502,1.499,1.5,1.5
231,0.654,0.656,0.655,0.653,1.5,1.498,1.5,1.5
232,0.653,0.656,0.655,0.653,1.486,1.484,1.487,1.487
233,0.651,0.655,0.655,0.653,1.467,1.466,1.47,1.469
234,0.65,0.655,0.655,0.653,1.445,1.446,1.449,1.448
235,0.65,0.655,0.655,0.653,1.424,1.424,1.427,1.426
236,0.65,0.655,0.655,0.653,1.405,1.405,1.408,1.408
237,0.65,0.655,0.656,0.654,1.387,1.387,1.39,1.392
238,0.65,0.656,0.657,0.655,1.369,1.369,1.372,1.374
239,0.65,0.655,0.655,0.654,1.347,1.347,1.35,1.351
240,0.648,0.654,0.653,0.652,1.32,1.32,1.323,1.325
241,0.644,0.648,0.649,0.646,1.293,1.294,1.297,1.297
242,0.639,0.645,0.646,0.643,1.27,1.27,1.272,1.273
243,0.636,0.64,0.642,0.639,1.257,1.256,1.259,1.26
244,0.632,0.634,0.639,0.632,1.246,1.244,1.248,1.248
245,0.621,0.626,0.629,0.623,1.229,1.226,1.23,1.231
246,0.61,0.613,0.614,0.612,1.196,1.194,1.198,1.198
247,0.596,0.601,0.601,0.598,1.168,1.167,1.17,1.171
248,0.586,0.59,0.593,0.587,1.155,1.152,1.156,1.157
249,0.578,0.58,0.584,0.578,1.142,1.142,1.144,1.146
250,0.57,0.571,0.574,0.569,1.126,1.13,1.132,1.131
251,0.555,0.56,0.562,0.559,1.108,1.11,1.114,1.114
252,0.541,0.545,0.547,0.545,1.084,1.085,1.089,1.09
253,0.527,0.531,0.532,0.53,1.064,1.066,1.069,1.07
254,0.515,0.519,0.52,0.518,1.048,1.049,1.053,1.053
255,0.503,0.508,0.51,0.506,1.035,1.037,1.041,1.04
256,0.492,0.497,0.499,0.495,1.018,1.02,1.024,1.024
257,0.479,0.485,0.488,0.483,1,1.003,1.008,1.007
258,0.469,0.473,0.476,0.472,0.985,0.986,0.991,0.99
259,0.455,0.461,0.463,0.459,0.968,0.97,0.973,0.973
260,0.446,0.453,0.456,0.451,0.956,0.958,0.96,0.96
261,0.442,0.446,0.449,0.446,0.95,0.949,0.951,0.954
262,0.438,0.442,0.443,0.443,0.947,0.948,0.949,0.952
263,0.435,0.439,0.439,0.438,0.945,0.945,0.947,0.95
264,0.429,0.434,0.435,0.432,0.938,0.94,0.941,0.945
265,0.424,0.431,0.429,0.427,0.931,0.932,0.935,0.937
266,0.418,0.424,0.424,0.422,0.923,0.928,0.931,0.932
267,0.414,0.42,0.42,0.418,0.917,0.92,0.923,0.926
268,0.41,0.416,0.416,0.414,0.912,0.915,0.918,0.92
269,0.408,0.414,0.414,0.412,0.91,0.913,0.916,0.917
270,0.406,0.412,0.412,0.41,0.91,0.912,0.915,0.917
271,0.403,0.409,0.411,0.407,0.906,0.909,0.911,0.914
272,0.401,0.407,0.409,0.406,0.903,0.905,0.908,0.911
273,0.4,0.405,0.407,0.404,0.902,0.904,0.908,0.91
274,0.4,0.406,0.407,0.405,0.904,0.905,0.909,0.91
275,0.401,0.406,0.408,0.405,0.906,0.906,0.911,0.912
276,0.401,0.406,0.408,0.405,0.906,0.907,0.911,0.913
277,0.4,0.405,0.407,0.404,0.906,0.907,0.911,0.913
278,0.398,0.404,0.406,0.403,0.906,0.907,0.911,0.913
279,0.398,0.404,0.404,0.403,0.906,0.907,0.912,0.913
280,0.398,0.404,0.404,0.403,0.906,0.907,0.912,0.914
281,0.396,0.404,0.404,0.401,0.905,0.907,0.912,0.914
282,0.395,0.403,0.404,0.399,0.905,0.906,0.912,0.914
283,0.394,0.399,0.402,0.398,0.905,0.907,0.912,0.914
284,0.391,0.398,0.399,0.398,0.905,0.909,0.912,0.914
285,0.391,0.398,0.399,0.397,0.907,0.91,0.912,0.915
286,0.391,0.396,0.398,0.396,0.906,0.91,0.912,0.915
287,0.388,0.393,0.394,0.393,0.906,0.91,0.912,0.915
288,0.386,0.392,0.392,0.391,0.906,0.91,0.913,0.915
289,0.384,0.388,0.39,0.387,0.906,0.909,0.914,0.915
290,0.38,0.384,0.385,0.384,0.905,0.907,0.914,0.913
291,0.375,0.381,0.382,0.382,0.901,0.904,0.909,0.908
292,0.371,0.378,0.379,0.377,0.898,0.901,0.907,0.906
293,0.369,0.376,0.378,0.376,0.898,0.899,0.906,0.906
294,0.365,0.373,0.374,0.371,0.898,0.899,0.905,0.906
295,0.361,0.367,0.371,0.366,0.892,0.896,0.9,0.903
296,0.361,0.366,0.37,0.365,0.89,0.894,0.898,0.9
297,0.359,0.363,0.367,0.363,0.89,0.894,0.898,0.9
298,0.356,0.362,0.366,0.362,0.889,0.893,0.896,0.899
299,0.357,0.362,0.366,0.362,0.888,0.891,0.893,0.899
300,0.357,0.362,0.366,0.362,0.888,0.891,0.894,0.899
301,0.357,0.362,0.365,0.362,0.888,0.89,0.894,0.899
302,0.356,0.362,0.364,0.361,0.887,0.889,0.894,0.899
303,0.353,0.361,0.362,0.36,0.884,0.885,0.893,0.895
304,0.352,0.361,0.361,0.358,0.881,0.882,0.89,0.891
305,0.351,0.36,0.359,0.358,0.88,0.88,0.886,0.887
306,0.349,0.357,0.358,0.356,0.875,0.876,0.882,0.883
307,0.347,0.355,0.356,0.354,0.87,0.872,0.876,0.879
308,0.346,0.351,0.353,0.351,0.864,0.866,0.871,0.873
309,0.344,0.351,0.352,0.348,0.859,0.861,0.866,0.866
310,0.343,0.35,0.351,0.347,0.857,0.857,0.863,0.863
311,0.343,0.348,0.35,0.347,0.853,0.855,0.859,0.86
312,0.343,0.348,0.35,0.347,0.849,0.851,0.855,0.856
313,0.342,0.347,0.349,0.346,0.844,0.846,0.85,0.851
314,0.34,0.346,0.347,0.345,0.837,0.84,0.843,0.845
315,0.338,0.344,0.345,0.344,0.832,0.835,0.838,0.84
316,0.338,0.344,0.345,0.343,0.832,0.833,0.835,0.839
317,0.338,0.345,0.345,0.344,0.83,0.833,0.835,0.839
318,0.339,0.345,0.345,0.344,0.822,0.825,0.83,0.833
319,0.338,0.344,0.345,0.341,0.815,0.817,0.822,0.824
320,0.337,0.343,0.343,0.341,0.81,0.812,0.817,0.818
321,0.337,0.343,0.343,0.341,0.804,0.808,0.811,0.814
322,0.334,0.34,0.341,0.339,0.796,0.799,0.803,0.805
323,0.331,0.336,0.337,0.335,0.788,0.79,0.795,0.796
324,0.33,0.335,0.337,0.334,0.782,0.786,0.789,0.791
325,0.33,0.337,0.337,0.335,0.782,0.784,0.788,0.79
326,0.333,0.337,0.338,0.337,0.779,0.783,0.785,0.786
327,0.334,0.338,0.339,0.337,0.774,0.777,0.78,0.782
328,0.333,0.338,0.34,0.337,0.769,0.773,0.776,0.777
329,0.332,0.337,0.339,0.336,0.763,0.766,0.77,0.771
330,0.331,0.336,0.338,0.334,0.757,0.759,0.763,0.765
331,0.329,0.334,0.336,0.333,0.751,0.753,0.757,0.758
332,0.327,0.332,0.335,0.331,0.745,0.747,0.751,0.752
333,0.327,0.332,0.334,0.331,0.741,0.744,0.748,0.75
334,0.327,0.332,0.334,0.331,0.74,0.741,0.745,0.747
335,0.327,0.332,0.334,0.331,0.736,0.738,0.742,0.744
336,0.327,0.332,0.335,0.331,0.731,0.734,0.738,0.739
337,0.327,0.332,0.333,0.33,0.727,0.729,0.733,0.733
338,0.327,0.332,0.333,0.33,0.723,0.725,0.729,0.729
339,0.327,0.332,0.332,0.33,0.719,0.722,0.725,0.726
340,0.326,0.332,0.332,0.33,0.715,0.717,0.72,0.721
341,0.324,0.33,0.331,0.329,0.709,0.712,0.715,0.716
342,0.323,0.328,0.329,0.327,0.704,0.706,0.71,0.711
343,0.321,0.328,0.328,0.326,0.7,0.702,0.706,0.707
344,0.321,0.327,0.328,0.326,0.698,0.7,0.705,0.705
345,0.325,0.33,0.331,0.329,0.698,0.7,0.705,0.706
346,0.326,0.332,0.333,0.33,0.698,0.7,0.705,0.706
347,0.326,0.332,0.333,0.331,0.696,0.698,0.702,0.704
348,0.325,0.33,0.332,0.33,0.691,0.694,0.697,0.699
349,0.325,0.33,0.331,0.328,0.688,0.69,0.694,0.694
350,0.325,0.33,0.331,0.328,0.684,0.687,0.691,0.692
351,0.323,0.329,0.33,0.327,0.681,0.682,0.686,0.688
352,0.323,0.329,0.329,0.327,0.676,0.68,0.683,0.686
353,0.322,0.329,0.329,0.327,0.673,0.676,0.682,0.682
354,0.322,0.329,0.329,0.327,0.673,0.675,0.682,0.681
355,0.322,0.326,0.329,0.326,0.67,0.671,0.679,0.68
356,0.322,0.326,0.329,0.326,0.669,0.671,0.678,0.68
357,0.323,0.327,0.329,0.326,0.669,0.67,0.675,0.679
358,0.325,0.329,0.33,0.328,0.668,0.671,0.675,0.679
359,0.324,0.329,0.329,0.328,0.667,0.668,0.673,0.679
360,0.324,0.329,0.329,0.328,0.665,0.666,0.671,0.677
361,0.325,0.333,0.33,0.331,0.666,0.669,0.673,0.676
362,0.328,0.336,0.336,0.338,0.673,0.676,0.68,0.679
363,0.331,0.337,0.341,0.34,0.674,0.677,0.682,0.679
364,0.331,0.337,0.341,0.34,0.674,0.676,0.682,0.679
365,0.332,0.337,0.341,0.34,0.671,0.676,0.679,0.679
366,0.332,0.337,0.34,0.338,0.671,0.674,0.676,0.679
367,0.331,0.337,0.34,0.337,0.671,0.673,0.676,0.679
368,0.331,0.337,0.34,0.337,0.671,0.673,0.676,0.679
369,0.331,0.337,0.339,0.337,0.669,0.672,0.675,0.677
370,0.33,0.335,0.337,0.335,0.668,0.671,0.674,0.677
371,0.33,0.335,0.337,0.335,0.667,0.669,0.673,0.675
372,0.331,0.336,0.337,0.336,0.667,0.669,0.673,0.675
373,0.33,0.336,0.337,0.335,0.667,0.669,0.672,0.674
374,0.331,0.335,0.337,0.335,0.665,0.668,0.671,0.673
375,0.331,0.335,0.337,0.335,0.665,0.668,0.671,0.673
376,0.33,0.335,0.337,0.335,0.664,0.667,0.671,0.672
377,0.334,0.339,0.337,0.335,0.667,0.671,0.673,0.676
378,0.335,0.341,0.339,0.337,0.671,0.675,0.675,0.682
379,0.338,0.342,0.344,0.34,0.673,0.677,0.679,0.684
380,0.339,0.343,0.344,0.34,0.673,0.676,0.68,0.683
381,0.338,0.343,0.343,0.34,0.672,0.676,0.68,0.682
382,0.338,0.343,0.341,0.34,0.671,0.674,0.679,0.68
383,0.338,0.342,0.342,0.34,0.671,0.674,0.679,0.68
384,0.338,0.344,0.342,0.342,0.671,0.674,0.679,0.68
385,0.338,0.345,0.343,0.342,0.672,0.674,0.68,0.68
386,0.338,0.344,0.343,0.342,0.672,0.674,0.68,0.68
387,0.338,0.345,0.343,0.343,0.673,0.675,0.68,0.681
388,0.34,0.345,0.343,0.343,0.673,0.677,0.683,0.682
389,0.34,0.345,0.345,0.344,0.673,0.676,0.683,0.682
390,0.329,0.334,0.335,0.332,0.66,0.665,0.671,0.672
391,0.322,0.33,0.33,0.326,0.658,0.663,0.667,0.667
392,0.321,0.329,0.329,0.326,0.658,0.662,0.666,0.667
393,0.321,0.329,0.329,0.326,0.658,0.662,0.666,0.668
394,0.32,0.329,0.328,0.326,0.658,0.662,0.666,0.668
395,0.321,0.329,0.329,0.326,0.659,0.662,0.666,0.67
396,0.321,0.329,0.329,0.326,0.659,0.663,0.667,0.67
397,0.321,0.327,0.329,0.326,0.66,0.663,0.667,0.67
398,0.321,0.327,0.328,0.325,0.659,0.663,0.667,0.669
399,0.321,0.326,0.326,0.325,0.659,0.663,0.667,0.669
400,0.319,0.325,0.325,0.323,0.659,0.664,0.667,0.669
401,0.318,0.324,0.324,0.323,0.66,0.663,0.667,0.669
402,0.317,0.321,0.324,0.322,0.66,0.663,0.667,0.669
403,0.315,0.321,0.323,0.32,0.66,0.663,0.667,0.669
404,0.315,0.321,0.323,0.318,0.66,0.665,0.668,0.669
405,0.316,0.322,0.323,0.319,0.663,0.665,0.671,0.672
406,0.317,0.323,0.325,0.32,0.665,0.667,0.672,0.674
407,0.317,0.323,0.325,0.321,0.666,0.669,0.673,0.676
408,0.317,0.322,0.325,0.321,0.666,0.669,0.673,0.676
409,0.316,0.322,0.322,0.321,0.666,0.668,0.673,0.676
410,0.315,0.322,0.321,0.32,0.666,0.668,0.673,0.675
411,0.316,0.322,0.321,0.32,0.667,0.67,0.674,0.675
412,0.315,0.322,0.322,0.32,0.669,0.671,0.676,0.677
413,0.314,0.32,0.319,0.32,0.67,0.672,0.676,0.678
414,0.313,0.318,0.318,0.319,0.67,0.672,0.675,0.678
415,0.313,0.318,0.318,0.317,0.67,0.672,0.675,0.678
416,0.312,0.318,0.318,0.317,0.67,0.672,0.676,0.678
417,0.312,0.316,0.317,0.316,0.671,0.673,0.676,0.678
418,0.31,0.313,0.316,0.315,0.671,0.673,0.676,0.678
419,0.308,0.312,0.313,0.312,0.671,0.673,0.676,0.678
420,0.306,0.311,0.312,0.31,0.671,0.673,0.678,0.678
421,0.305,0.31,0.311,0.309,0.672,0.675,0.678,0.679
422,0.306,0.31,0.312,0.309,0.675,0.678,0.68,0.681
423,0.306,0.311,0.312,0.31,0.677,0.679,0.682,0.683
424,0.306,0.311,0.312,0.31,0.678,0.679,0.683,0.684
425,0.306,0.311,0.312,0.31,0.679,0.681,0.684,0.686
426,0.306,0.311,0.313,0.31,0.681,0.684,0.687,0.688
427,0.306,0.311,0.313,0.311,0.683,0.686,0.69,0.691
428,0.307,0.312,0.313,0.312,0.684,0.687,0.691,0.691
429,0.306,0.312,0.313,0.312,0.686,0.687,0.691,0.692
430,0.306,0.312,0.313,0.311,0.687,0.688,0.691,0.693
431,0.306,0.312,0.312,0.311,0.687,0.688,0.692,0.693
432,0.306,0.31,0.312,0.31,0.687,0.689,0.693,0.694
433,0.306,0.31,0.312,0.31,0.687,0.689,0.693,0.694
434,0.306,0.31,0.312,0.309,0.688,0.689,0.693,0.695
435,0.305,0.31,0.311,0.309,0.688,0.69,0.694,0.697
436,0.305,0.31,0.311,0.309,0.688,0.692,0.695,0.697
437,0.304,0.309,0.31,0.308,0.69,0.693,0.696,0.698
438,0.304,0.309,0.308,0.307,0.691,0.694,0.697,0.698
439,0.303,0.308,0.308,0.306,0.691,0.694,0.697,0.698
440,0.302,0.306,0.307,0.305,0.691,0.694,0.697,0.698
441,0.3,0.306,0.305,0.303,0.691,0.694,0.698,0.699
442,0.3,0.306,0.305,0.303,0.692,0.695,0.698,0.7
443,0.301,0.306,0.306,0.304,0.694,0.697,0.7,0.702
444,0.302,0.306,0.306,0.304,0.695,0.698,0.702,0.703
445,0.301,0.305,0.306,0.304,0.696,0.698,0.702,0.704
446,0.301,0.304,0.305,0.304,0.696,0.698,0.702,0.704
447,0.301,0.303,0.305,0.303,0.696,0.698,0.703,0.704
448,0.301,0.304,0.304,0.303,0.697,0.699,0.703,0.705
449,0.301,0.304,0.304,0.303,0.698,0.7,0.704,0.706
450,0.301,0.304,0.305,0.303,0.7,0.701,0.705,0.706
451,0.3,0.304,0.305,0.303,0.701,0.704,0.707,0.707
452,0.3,0.304,0.305,0.303,0.701,0.704,0.708,0.708
453,0.3,0.304,0.305,0.303,0.702,0.704,0.709,0.709
454,0.299,0.304,0.305,0.303,0.704,0.705,0.71,0.711
455,0.299,0.305,0.306,0.303,0.704,0.708,0.711,0.712
456,0.299,0.304,0.305,0.303,0.705,0.708,0.712,0.712
457,0.299,0.303,0.304,0.302,0.705,0.709,0.712,0.713
458,0.297,0.301,0.304,0.3,0.704,0.707,0.711,0.713
459,0.295,0.299,0.3,0.298,0.702,0.705,0.709,0.71
460,0.294,0.298,0.299,0.297,0.701,0.704,0.708,0.71
461,0.296,0.299,0.3,0.298,0.705,0.708,0.711,0.713
462,0.299,0.304,0.304,0.303,0.709,0.712,0.716,0.718
463,0.3,0.304,0.305,0.304,0.71,0.713,0.718,0.719
464,0.3,0.304,0.305,0.304,0.71,0.713,0.718,0.719
465,0.298,0.303,0.305,0.302,0.71,0.712,0.717,0.718
466,0.297,0.303,0.303,0.302,0.71,0.712,0.717,0.718
467,0.296,0.301,0.303,0.301,0.71,0.712,0.717,0.718
468,0.296,0.302,0.303,0.3,0.71,0.713,0.717,0.719
469,0.296,0.302,0.303,0.3,0.711,0.713,0.718,0.719
470,0.297,0.303,0.303,0.3,0.712,0.713,0.719,0.72
471,0.297,0.302,0.303,0.3,0.712,0.715,0.719,0.72
472,0.297,0.302,0.303,0.3,0.713,0.716,0.72,0.721
473,0.297,0.301,0.301,0.3,0.713,0.715,0.72,0.721
474,0.296,0.301,0.301,0.3,0.713,0.715,0.72,0.721
475,0.296,0.301,0.301,0.299,0.713,0.716,0.72,0.721
476,0.296,0.3,0.301,0.299,0.713,0.716,0.72,0.721
477,0.294,0.299,0.3,0.297,0.712,0.715,0.72,0.721
478,0.294,0.298,0.3,0.297,0.712,0.715,0.719,0.721
479,0.293,0.298,0.298,0.297,0.712,0.715,0.719,0.721
480,0.293,0.297,0.298,0.296,0.712,0.715,0.719,0.721
481,0.292,0.295,0.296,0.294,0.71,0.712,0.716,0.718
482,0.287,0.291,0.292,0.289,0.706,0.708,0.712,0.714
483,0.283,0.287,0.287,0.285,0.702,0.704,0.708,0.71
484,0.28,0.284,0.284,0.282,0.701,0.703,0.707,0.708
485,0.286,0.29,0.29,0.288,0.71,0.712,0.716,0.717
486,0.293,0.297,0.297,0.295,0.717,0.72,0.723,0.725
487,0.291,0.296,0.296,0.293,0.715,0.718,0.722,0.723
488,0.288,0.293,0.293,0.291,0.713,0.716,0.721,0.722
489,0.289,0.295,0.295,0.291,0.716,0.72,0.724,0.726
490,0.29,0.296,0.296,0.293,0.717,0.72,0.725,0.726
491,0.287,0.293,0.293,0.29,0.713,0.717,0.721,0.723
492,0.287,0.292,0.292,0.289,0.714,0.717,0.721,0.724
493,0.293,0.298,0.298,0.296,0.722,0.725,0.73,0.731
494,0.296,0.301,0.303,0.299,0.725,0.728,0.733,0.735
495,0.295,0.301,0.302,0.299,0.725,0.728,0.733,0.735
496,0.294,0.299,0.299,0.297,0.723,0.726,0.731,0.733
497,0.293,0.297,0.298,0.296,0.722,0.726,0.73,0.733
498,0.293,0.299,0.299,0.296,0.723,0.726,0.731,0.733
499,0.294,0.3,0.3,0.297,0.724,0.728,0.733,0.736
500,0.294,0.301,0.3,0.298,0.724,0.729,0.734,0.736
501,0.294,0.301,0.3,0.298,0.725,0.729,0.734,0.736
502,0.293,0.299,0.3,0.297,0.724,0.729,0.734,0.736
503,0.292,0.298,0.298,0.296,0.724,0.727,0.733,0.735
504,0.291,0.297,0.297,0.295,0.723,0.726,0.732,0.734
505,0.291,0.296,0.296,0.294,0.723,0.726,0.732,0.734
506,0.29,0.295,0.296,0.294,0.723,0.726,0.731,0.734
507,0.288,0.295,0.294,0.292,0.722,0.725,0.73,0.732
508,0.287,0.292,0.294,0.291,0.721,0.724,0.73,0.731
509,0.286,0.292,0.292,0.29,0.721,0.724,0.729,0.73
510,0.286,0.291,0.292,0.289,0.72,0.724,0.729,0.73
511,0.285,0.29,0.291,0.288,0.72,0.724,0.729,0.73
512,0.285,0.29,0.291,0.288,0.721,0.724,0.729,0.731
513,0.285,0.29,0.291,0.288,0.722,0.725,0.73,0.731
514,0.285,0.291,0.291,0.289,0.722,0.725,0.73,0.732
515,0.285,0.29,0.29,0.288,0.722,0.725,0.73,0.731
516,0.284,0.289,0.289,0.287,0.721,0.724,0.728,0.731
517,0.282,0.287,0.287,0.285,0.719,0.722,0.727,0.731
518,0.282,0.287,0.287,0.285,0.72,0.723,0.728,0.731
519,0.284,0.29,0.29,0.288,0.724,0.728,0.733,0.736
520,0.286,0.292,0.292,0.29,0.726,0.729,0.734,0.737
521,0.286,0.292,0.292,0.29,0.725,0.729,0.734,0.737
522,0.285,0.29,0.291,0.289,0.724,0.728,0.732,0.736
523,0.283,0.288,0.289,0.287,0.723,0.726,0.73,0.734
524,0.28,0.285,0.287,0.283,0.719,0.723,0.727,0.731
525,0.279,0.282,0.283,0.28,0.718,0.722,0.727,0.73
526,0.278,0.282,0.282,0.28,0.718,0.722,0.726,0.728
527,0.275,0.28,0.28,0.278,0.717,0.72,0.726,0.728
528,0.275,0.279,0.279,0.277,0.718,0.72,0.726,0.728
529,0.285,0.289,0.289,0.287,0.728,0.73,0.735,0.739
530,0.289,0.295,0.294,0.292,0.732,0.734,0.74,0.743
531,0.287,0.293,0.293,0.29,0.728,0.731,0.737,0.741
532,0.282,0.288,0.288,0.286,0.724,0.727,0.733,0.735
533,0.283,0.287,0.288,0.285,0.725,0.729,0.735,0.737
534,0.287,0.292,0.293,0.29,0.729,0.733,0.74,0.741
535,0.285,0.292,0.291,0.289,0.73,0.732,0.74,0.74
536,0.284,0.29,0.29,0.287,0.728,0.731,0.737,0.739
537,0.285,0.291,0.29,0.288,0.728,0.733,0.738,0.739
538,0.284,0.291,0.289,0.288,0.727,0.731,0.737,0.739
539,0.28,0.286,0.286,0.285,0.722,0.726,0.731,0.734
540,0.277,0.281,0.283,0.28,0.718,0.721,0.726,0.729
541,0.277,0.283,0.282,0.281,0.718,0.721,0.727,0.73
542,0.283,0.289,0.289,0.286,0.726,0.729,0.734,0.738
543,0.287,0.292,0.292,0.29,0.729,0.732,0.738,0.741
544,0.289,0.293,0.293,0.292,0.729,0.733,0.739,0.742
545,0.287,0.292,0.293,0.291,0.729,0.732,0.739,0.741
546,0.285,0.291,0.291,0.289,0.727,0.731,0.736,0.74
547,0.286,0.292,0.291,0.29,0.727,0.731,0.737,0.739
548,0.288,0.294,0.294,0.291,0.727,0.732,0.737,0.74
549,0.289,0.294,0.294,0.292,0.727,0.732,0.737,0.74
550,0.287,0.292,0.293,0.29,0.726,0.73,0.735,0.737
551,0.284,0.289,0.291,0.287,0.724,0.727,0.734,0.735
552,0.282,0.288,0.289,0.286,0.723,0.726,0.732,0.733
553,0.282,0.289,0.289,0.287,0.723,0.726,0.732,0.733
554,0.284,0.29,0.29,0.288,0.723,0.727,0.732,0.735
555,0.284,0.29,0.29,0.288,0.723,0.727,0.732,0.734
556,0.283,0.289,0.289,0.287,0.723,0.726,0.731,0.733
557,0.283,0.288,0.288,0.287,0.722,0.725,0.73,0.732
558,0.282,0.288,0.288,0.286,0.72,0.725,0.728,0.731
559,0.281,0.287,0.287,0.285,0.719,0.722,0.727,0.729
560,0.268,0.272,0.272,0.27,0.712,0.715,0.718,0.719
561,0.259,0.263,0.264,0.262,0.707,0.709,0.713,0.715
562,0.258,0.262,0.262,0.26,0.707,0.708,0.712,0.713
563,0.256,0.26,0.261,0.259,0.705,0.708,0.71,0.713
564,0.256,0.259,0.26,0.258,0.703,0.704,0.707,0.71
565,0.254,0.258,0.258,0.257,0.7,0.702,0.705,0.708
566,0.255,0.258,0.259,0.257,0.7,0.702,0.705,0.707
567,0.256,0.26,0.261,0.259,0.701,0.703,0.706,0.708
568,0.256,0.26,0.26,0.259,0.701,0.702,0.705,0.708
569,0.256,0.26,0.26,0.258,0.699,0.701,0.705,0.706
570,0.255,0.259,0.259,0.258,0.697,0.699,0.703,0.703
571,0.255,0.258,0.258,0.256,0.696,0.696,0.702,0.701
572,0.255,0.258,0.257,0.256,0.694,0.696,0.7,0.701
573,0.256,0.259,0.259,0.257,0.696,0.697,0.7,0.701
574,0.256,0.259,0.259,0.257,0.695,0.697,0.7,0.701
575,0.256,0.259,0.259,0.258,0.695,0.697,0.7,0.701
576,0.256,0.26,0.259,0.259,0.695,0.697,0.7,0.702
577,0.257,0.261,0.261,0.26,0.695,0.697,0.7,0.702
578,0.257,0.262,0.261,0.26,0.694,0.697,0.7,0.701
