wavelength,S8 Unclean 1,S8 Unclean 2,S8 Unclean 3,S8 Unclean 4,S8 Unclean 5,S8 Clean 1,S8 Clean 2,S8 Clean 3,S8 Clean 4
190,1.705,1.7,1.72,1.722,1.715,1.675,1.678,1.691,1.697
191,1.743,1.734,1.749,1.763,1.744,1.708,1.707,1.712,1.718
192,1.759,1.76,1.76,1.768,1.763,1.722,1.734,1.731,1.734
193,1.781,1.778,1.782,1.782,1.785,1.757,1.751,1.749,1.754
194,1.79,1.787,1.796,1.791,1.799,1.759,1.758,1.767,1.767
195,1.794,1.79,1.801,1.804,1.8,1.761,1.771,1.769,1.775
196,1.806,1.798,1.803,1.811,1.804,1.766,1.773,1.782,1.776
197,1.812,1.805,1.808,1.813,1.818,1.768,1.78,1.79,1.778
198,1.813,1.806,1.81,1.818,1.818,1.774,1.784,1.791,1.785
199,1.811,1.806,1.815,1.821,1.818,1.773,1.783,1.791,1.785
200,1.798,1.801,1.806,1.815,1.811,1.768,1.774,1.775,1.782
201,1.787,1.789,1.801,1.8,1.804,1.762,1.762,1.765,1.772
202,1.782,1.783,1.785,1.792,1.786,1.751,1.756,1.75,1.762
203,1.765,1.765,1.769,1.772,1.773,1.739,1.738,1.737,1.748
204,1.745,1.746,1.749,1.749,1.754,1.72,1.725,1.72,1.725
205,1.719,1.72,1.726,1.724,1.721,1.692,1.698,1.706,1.701
206,1.682,1.685,1.69,1.687,1.688,1.657,1.663,1.667,1.667
207,1.641,1.642,1.647,1.647,1.647,1.616,1.624,1.627,1.625
208,1.595,1.594,1.6,1.601,1.601,1.573,1.576,1.579,1.58
209,1.545,1.546,1.552,1.552,1.551,1.522,1.524,1.531,1.53
210,1.495,1.495,1.5,1.504,1.502,1.472,1.476,1.481,1.48
211,1.44,1.441,1.446,1.448,1.447,1.422,1.428,1.428,1.43
212,1.385,1.387,1.392,1.393,1.393,1.369,1.376,1.377,1.378
213,1.336,1.338,1.34,1.343,1.344,1.321,1.326,1.33,1.33
214,1.283,1.287,1.288,1.292,1.292,1.273,1.277,1.279,1.28
215,1.269,1.275,1.261,1.263,1.268,1.256,1.265,1.262,1.269
216,1.237,1.237,1.232,1.232,1.235,1.223,1.236,1.234,1.232
217,1.192,1.19,1.209,1.19,1.195,1.18,1.194,1.19,1.186
218,1.146,1.145,1.154,1.149,1.148,1.138,1.143,1.145,1.141
219,1.105,1.103,1.114,1.112,1.109,1.096,1.102,1.103,1.104
220,1.067,1.067,1.07,1.071,1.067,1.057,1.062,1.061,1.065
221,1.031,1.031,1.033,1.035,1.033,1.024,1.027,1.027,1.032
222,0.999,1,1.001,1.003,1.002,0.991,0.997,0.996,1
223,0.963,0.964,0.966,0.968,0.968,0.955,0.959,0.96,0.963
224,0.938,0.94,0.942,0.944,0.943,0.93,0.934,0.936,0.938
225,0.921,0.922,0.924,0.926,0.926,0.912,0.915,0.917,0.918
226,0.909,0.91,0.911,0.912,0.913,0.897,0.9,0.903,0.904
227,0.901,0.901,0.902,0.904,0.904,0.889,0.892,0.893,0.894
228,0.9,0.899,0.902,0.902,0.903,0.888,0.891,0.891,0.892
229,0.906,0.905,0.908,0.907,0.906,0.893,0.896,0.894,0.895
230,0.911,0.913,0.913,0.912,0.913,0.9,0.903,0.902,0.902
231,0.918,0.92,0.92,0.921,0.922,0.907,0.91,0.911,0.912
232,0.927,0.929,0.928,0.927,0.931,0.915,0.918,0.921,0.922
233,0.935,0.937,0.937,0.938,0.941,0.924,0.929,0.932,0.932
234,0.947,0.949,0.948,0.949,0.951,0.935,0.939,0.942,0.943
235,0.958,0.96,0.961,0.961,0.963,0.946,0.951,0.954,0.954
236,0.971,0.973,0.974,0.975,0.976,0.958,0.962,0.965,0.965
237,0.981,0.984,0.985,0.986,0.987,0.968,0.971,0.976,0.976
238,0.991,0.994,0.996,0.997,0.998,0.978,0.983,0.986,0.988
239,0.999,1.002,1.004,1.005,1.005,0.985,0.991,0.994,0.996
240,1.005,1.007,1.009,1.009,1.01,0.99,0.994,0.997,0.998
241,1.007,1.007,1.01,1.009,1.012,0.99,0.995,0.998,0.998
242,1.008,1.01,1.01,1.009,1.011,0.991,0.996,0.998,0.999
243,1.01,1.011,1.01,1.011,1.012,0.992,0.997,0.998,1
244,1.01,1.01,1.01,1.012,1.011,0.992,0.997,0.998,1
245,0.998,0.998,1,1.002,0.998,0.983,0.985,0.988,0.99
246,0.978,0.979,0.98,0.982,0.98,0.964,0.966,0.968,0.969
247,0.965,0.966,0.966,0.968,0.965,0.946,0.947,0.949,0.95
248,0.954,0.956,0.955,0.958,0.954,0.934,0.935,0.938,0.938
249,0.946,0.944,0.943,0.947,0.942,0.919,0.924,0.926,0.926
250,0.923,0.923,0.922,0.925,0.923,0.903,0.906,0.91,0.909
251,0.897,0.899,0.898,0.9,0.899,0.882,0.883,0.887,0.887
252,0.87,0.872,0.872,0.874,0.874,0.854,0.858,0.861,0.86
253,0.849,0.852,0.852,0.853,0.853,0.832,0.833,0.838,0.836
254,0.828,0.83,0.831,0.831,0.832,0.81,0.814,0.815,0.817
255,0.807,0.809,0.811,0.81,0.812,0.789,0.793,0.796,0.796
256,0.785,0.788,0.789,0.788,0.791,0.768,0.772,0.775,0.775
257,0.764,0.767,0.768,0.768,0.769,0.746,0.749,0.753,0.753
258,0.741,0.744,0.744,0.747,0.746,0.724,0.727,0.73,0.731
259,0.722,0.724,0.724,0.726,0.725,0.702,0.706,0.708,0.709
260,0.707,0.708,0.71,0.709,0.709,0.687,0.69,0.692,0.693
261,0.697,0.7,0.7,0.702,0.7,0.677,0.68,0.683,0.683
262,0.693,0.693,0.693,0.695,0.694,0.673,0.676,0.677,0.678
263,0.682,0.685,0.685,0.685,0.686,0.667,0.669,0.672,0.673
264,0.674,0.677,0.678,0.678,0.679,0.657,0.66,0.664,0.664
265,0.666,0.669,0.67,0.671,0.672,0.648,0.652,0.655,0.656
266,0.657,0.66,0.662,0.663,0.663,0.638,0.643,0.646,0.647
267,0.65,0.654,0.654,0.656,0.656,0.629,0.634,0.638,0.638
268,0.646,0.648,0.65,0.651,0.651,0.624,0.63,0.633,0.633
269,0.642,0.645,0.646,0.647,0.648,0.62,0.625,0.629,0.629
270,0.638,0.64,0.642,0.644,0.643,0.616,0.62,0.624,0.625
271,0.632,0.635,0.636,0.638,0.638,0.61,0.615,0.618,0.619
272,0.63,0.632,0.634,0.635,0.636,0.606,0.611,0.615,0.616
273,0.631,0.633,0.635,0.636,0.637,0.606,0.611,0.614,0.616
274,0.631,0.633,0.635,0.636,0.637,0.608,0.611,0.616,0.617
275,0.631,0.633,0.635,0.637,0.636,0.607,0.611,0.616,0.617
276,0.628,0.63,0.632,0.635,0.635,0.604,0.609,0.613,0.614
277,0.626,0.628,0.631,0.633,0.633,0.6,0.605,0.611,0.611
278,0.626,0.628,0.631,0.632,0.633,0.599,0.605,0.611,0.61
279,0.625,0.627,0.629,0.632,0.633,0.599,0.604,0.609,0.61
280,0.623,0.625,0.628,0.628,0.633,0.595,0.6,0.607,0.607
281,0.622,0.623,0.626,0.624,0.631,0.593,0.598,0.602,0.605
282,0.619,0.621,0.626,0.622,0.627,0.591,0.597,0.601,0.602
283,0.619,0.62,0.623,0.622,0.627,0.591,0.595,0.601,0.602
284,0.619,0.621,0.623,0.624,0.627,0.59,0.595,0.6,0.602
285,0.618,0.619,0.622,0.624,0.626,0.587,0.592,0.597,0.6
286,0.615,0.616,0.62,0.622,0.623,0.584,0.591,0.595,0.598
287,0.615,0.616,0.619,0.621,0.622,0.584,0.59,0.594,0.597
288,0.615,0.617,0.619,0.621,0.622,0.584,0.59,0.593,0.595
289,0.612,0.617,0.618,0.621,0.621,0.582,0.588,0.593,0.595
290,0.608,0.612,0.615,0.616,0.617,0.579,0.584,0.589,0.591
291,0.607,0.611,0.614,0.615,0.617,0.576,0.582,0.587,0.588
292,0.607,0.611,0.614,0.615,0.614,0.576,0.582,0.587,0.588
293,0.607,0.61,0.613,0.613,0.614,0.576,0.582,0.587,0.588
294,0.605,0.609,0.611,0.611,0.614,0.574,0.579,0.585,0.586
295,0.604,0.606,0.608,0.61,0.614,0.568,0.576,0.581,0.582
296,0.602,0.605,0.608,0.61,0.611,0.567,0.574,0.581,0.58
297,0.599,0.605,0.607,0.607,0.607,0.566,0.573,0.578,0.579
298,0.599,0.605,0.606,0.607,0.607,0.566,0.573,0.578,0.579
299,0.599,0.604,0.606,0.607,0.608,0.566,0.573,0.578,0.579
300,0.599,0.604,0.606,0.605,0.608,0.564,0.573,0.577,0.578
301,0.598,0.602,0.605,0.604,0.608,0.562,0.57,0.576,0.578
302,0.594,0.6,0.6,0.602,0.605,0.56,0.569,0.575,0.577
303,0.593,0.599,0.599,0.602,0.603,0.558,0.567,0.572,0.576
304,0.593,0.598,0.598,0.601,0.602,0.554,0.565,0.568,0.573
305,0.588,0.592,0.596,0.597,0.599,0.553,0.562,0.563,0.57
306,0.584,0.587,0.592,0.593,0.598,0.551,0.557,0.56,0.565
307,0.581,0.586,0.588,0.59,0.592,0.547,0.555,0.559,0.559
308,0.578,0.582,0.584,0.586,0.586,0.543,0.55,0.554,0.555
309,0.577,0.58,0.583,0.583,0.585,0.54,0.55,0.553,0.554
310,0.577,0.579,0.581,0.582,0.584,0.54,0.549,0.552,0.553
311,0.576,0.578,0.581,0.581,0.583,0.54,0.548,0.551,0.553
312,0.573,0.576,0.579,0.579,0.58,0.54,0.546,0.549,0.551
313,0.569,0.572,0.575,0.575,0.576,0.536,0.541,0.545,0.546
314,0.567,0.57,0.572,0.573,0.574,0.532,0.538,0.541,0.542
315,0.568,0.571,0.573,0.574,0.575,0.532,0.538,0.541,0.543
316,0.569,0.571,0.575,0.575,0.575,0.534,0.539,0.545,0.544
317,0.567,0.57,0.573,0.573,0.575,0.534,0.538,0.544,0.544
318,0.563,0.566,0.57,0.569,0.571,0.529,0.533,0.539,0.539
319,0.562,0.564,0.568,0.568,0.569,0.526,0.532,0.536,0.536
320,0.562,0.564,0.567,0.568,0.568,0.525,0.532,0.535,0.536
321,0.556,0.559,0.561,0.565,0.562,0.519,0.526,0.531,0.531
322,0.548,0.552,0.554,0.556,0.555,0.512,0.518,0.523,0.523
323,0.547,0.55,0.552,0.553,0.554,0.509,0.516,0.52,0.521
324,0.549,0.55,0.553,0.555,0.555,0.511,0.518,0.521,0.522
325,0.55,0.551,0.556,0.556,0.557,0.511,0.519,0.522,0.523
326,0.55,0.551,0.556,0.556,0.557,0.512,0.519,0.522,0.525
327,0.548,0.551,0.555,0.554,0.557,0.511,0.519,0.522,0.524
328,0.545,0.547,0.551,0.551,0.552,0.509,0.515,0.52,0.52
329,0.541,0.543,0.547,0.547,0.549,0.505,0.511,0.516,0.517
330,0.537,0.54,0.542,0.543,0.544,0.5,0.506,0.511,0.512
331,0.533,0.536,0.539,0.539,0.541,0.497,0.503,0.507,0.508
332,0.532,0.536,0.538,0.538,0.54,0.496,0.502,0.506,0.507
333,0.532,0.536,0.538,0.538,0.54,0.496,0.502,0.507,0.507
334,0.532,0.535,0.538,0.538,0.54,0.496,0.504,0.507,0.507
335,0.53,0.533,0.534,0.537,0.537,0.496,0.501,0.506,0.506
336,0.528,0.53,0.533,0.533,0.534,0.493,0.498,0.502,0.503
337,0.525,0.529,0.532,0.532,0.532,0.49,0.496,0.5,0.5
338,0.524,0.527,0.529,0.53,0.531,0.489,0.495,0.498,0.499
339,0.522,0.524,0.527,0.528,0.529,0.488,0.493,0.496,0.498
340,0.519,0.522,0.524,0.525,0.525,0.484,0.489,0.493,0.494
341,0.515,0.517,0.519,0.52,0.52,0.48,0.486,0.49,0.49
342,0.512,0.514,0.516,0.517,0.517,0.477,0.482,0.486,0.487
343,0.511,0.514,0.517,0.517,0.518,0.477,0.482,0.486,0.487
344,0.513,0.515,0.52,0.519,0.519,0.478,0.484,0.488,0.49
345,0.514,0.518,0.52,0.521,0.523,0.481,0.487,0.492,0.491
346,0.513,0.518,0.52,0.52,0.521,0.48,0.485,0.49,0.49
347,0.51,0.514,0.516,0.517,0.517,0.477,0.481,0.487,0.488
348,0.507,0.51,0.513,0.515,0.515,0.474,0.48,0.484,0.486
349,0.505,0.509,0.511,0.513,0.513,0.472,0.477,0.483,0.483
350,0.503,0.507,0.509,0.51,0.51,0.469,0.476,0.479,0.48
351,0.5,0.503,0.506,0.507,0.509,0.465,0.472,0.476,0.479
352,0.5,0.501,0.505,0.504,0.505,0.463,0.472,0.476,0.478
353,0.499,0.501,0.504,0.503,0.505,0.462,0.472,0.475,0.478
354,0.497,0.498,0.502,0.502,0.504,0.461,0.471,0.474,0.477
355,0.494,0.497,0.5,0.499,0.502,0.46,0.471,0.474,0.476
356,0.495,0.497,0.5,0.5,0.504,0.462,0.471,0.474,0.476
357,0.495,0.497,0.5,0.502,0.504,0.464,0.471,0.474,0.476
358,0.493,0.497,0.5,0.502,0.502,0.46,0.47,0.471,0.476
359,0.492,0.493,0.498,0.501,0.5,0.458,0.467,0.47,0.472
360,0.496,0.497,0.498,0.503,0.502,0.459,0.468,0.471,0.474
361,0.499,0.502,0.504,0.504,0.505,0.461,0.472,0.474,0.474
362,0.505,0.509,0.51,0.512,0.513,0.463,0.473,0.477,0.476
363,0.502,0.508,0.51,0.51,0.511,0.467,0.475,0.481,0.479
364,0.5,0.505,0.508,0.508,0.51,0.467,0.474,0.48,0.479
365,0.499,0.501,0.504,0.506,0.505,0.466,0.473,0.479,0.479
366,0.498,0.5,0.503,0.503,0.505,0.465,0.471,0.479,0.478
367,0.494,0.497,0.501,0.499,0.502,0.464,0.471,0.477,0.476
368,0.491,0.495,0.499,0.498,0.499,0.461,0.47,0.473,0.473
369,0.49,0.494,0.496,0.497,0.498,0.459,0.466,0.47,0.471
370,0.49,0.493,0.495,0.496,0.496,0.459,0.466,0.47,0.471
371,0.489,0.491,0.493,0.496,0.496,0.459,0.466,0.47,0.47
372,0.488,0.491,0.492,0.495,0.495,0.458,0.464,0.469,0.47
373,0.485,0.489,0.492,0.493,0.493,0.456,0.463,0.468,0.469
374,0.485,0.488,0.489,0.491,0.493,0.454,0.462,0.467,0.468
375,0.484,0.487,0.489,0.491,0.492,0.454,0.461,0.467,0.468
376,0.488,0.489,0.493,0.495,0.495,0.458,0.464,0.47,0.471
377,0.492,0.493,0.496,0.5,0.5,0.464,0.469,0.475,0.477
378,0.495,0.495,0.499,0.5,0.5,0.464,0.474,0.476,0.477
379,0.495,0.496,0.499,0.5,0.5,0.464,0.474,0.476,0.477
380,0.493,0.495,0.498,0.5,0.499,0.464,0.473,0.476,0.477
381,0.489,0.492,0.497,0.497,0.497,0.464,0.472,0.476,0.476
382,0.489,0.492,0.496,0.496,0.498,0.464,0.471,0.475,0.476
383,0.489,0.493,0.496,0.496,0.497,0.464,0.471,0.475,0.476
384,0.491,0.493,0.496,0.497,0.498,0.464,0.471,0.475,0.476
385,0.491,0.493,0.496,0.497,0.498,0.464,0.471,0.475,0.476
386,0.491,0.493,0.497,0.497,0.498,0.464,0.471,0.476,0.478
387,0.491,0.493,0.496,0.497,0.498,0.464,0.472,0.477,0.478
388,0.491,0.493,0.497,0.497,0.498,0.464,0.472,0.475,0.478
389,0.491,0.492,0.496,0.497,0.498,0.463,0.471,0.475,0.476
390,0.479,0.482,0.485,0.488,0.488,0.456,0.464,0.468,0.469
391,0.477,0.48,0.484,0.487,0.488,0.453,0.462,0.465,0.466
392,0.475,0.478,0.481,0.485,0.485,0.45,0.458,0.463,0.464
393,0.475,0.478,0.481,0.485,0.485,0.447,0.456,0.462,0.46
394,0.475,0.478,0.481,0.484,0.483,0.447,0.456,0.462,0.461
395,0.475,0.478,0.481,0.484,0.482,0.448,0.456,0.462,0.461
396,0.474,0.477,0.48,0.481,0.482,0.447,0.456,0.46,0.46
397,0.473,0.475,0.478,0.48,0.481,0.446,0.454,0.458,0.459
398,0.472,0.475,0.478,0.48,0.479,0.446,0.454,0.458,0.459
399,0.471,0.474,0.477,0.478,0.479,0.446,0.453,0.458,0.459
400,0.471,0.473,0.476,0.477,0.478,0.446,0.453,0.457,0.457
401,0.47,0.472,0.475,0.475,0.475,0.444,0.451,0.455,0.456
402,0.469,0.472,0.473,0.475,0.475,0.444,0.451,0.454,0.456
403,0.468,0.471,0.472,0.475,0.474,0.444,0.451,0.454,0.456
404,0.469,0.471,0.473,0.475,0.475,0.444,0.452,0.455,0.456
405,0.469,0.472,0.474,0.476,0.475,0.445,0.452,0.456,0.457
406,0.47,0.472,0.474,0.476,0.476,0.446,0.452,0.456,0.457
407,0.469,0.472,0.474,0.476,0.476,0.445,0.451,0.456,0.457
408,0.469,0.471,0.474,0.474,0.476,0.444,0.45,0.455,0.457
409,0.468,0.471,0.472,0.474,0.476,0.444,0.45,0.455,0.455
410,0.468,0.471,0.473,0.474,0.476,0.444,0.451,0.455,0.457
411,0.468,0.471,0.473,0.474,0.476,0.445,0.451,0.456,0.458
412,0.468,0.47,0.473,0.473,0.476,0.445,0.451,0.455,0.457
413,0.468,0.47,0.473,0.474,0.475,0.444,0.451,0.455,0.457
414,0.467,0.47,0.473,0.474,0.476,0.444,0.45,0.455,0.455
415,0.467,0.469,0.472,0.473,0.475,0.444,0.45,0.455,0.455
416,0.466,0.469,0.472,0.473,0.475,0.443,0.449,0.453,0.454
417,0.466,0.468,0.471,0.473,0.472,0.442,0.448,0.452,0.453
418,0.464,0.467,0.469,0.472,0.471,0.441,0.447,0.451,0.451
419,0.464,0.466,0.468,0.47,0.47,0.44,0.446,0.45,0.45
420,0.463,0.466,0.468,0.47,0.47,0.44,0.446,0.449,0.45
421,0.463,0.466,0.468,0.47,0.47,0.44,0.446,0.449,0.45
422,0.464,0.466,0.469,0.47,0.47,0.44,0.446,0.45,0.45
423,0.464,0.466,0.47,0.47,0.471,0.44,0.446,0.45,0.45
424,0.464,0.466,0.47,0.47,0.471,0.44,0.446,0.45,0.45
425,0.464,0.467,0.47,0.47,0.471,0.44,0.446,0.45,0.451
426,0.464,0.468,0.47,0.471,0.472,0.441,0.446,0.451,0.451
427,0.464,0.468,0.47,0.471,0.472,0.441,0.447,0.451,0.451
428,0.465,0.468,0.47,0.471,0.472,0.44,0.447,0.451,0.451
429,0.465,0.468,0.47,0.471,0.473,0.44,0.446,0.451,0.451
430,0.465,0.467,0.47,0.471,0.472,0.44,0.446,0.451,0.451
431,0.465,0.467,0.469,0.471,0.471,0.44,0.446,0.451,0.451
432,0.464,0.467,0.468,0.47,0.471,0.441,0.446,0.451,0.451
433,0.464,0.466,0.468,0.47,0.471,0.44,0.446,0.45,0.451
434,0.464,0.466,0.468,0.47,0.47,0.44,0.445,0.449,0.45
435,0.464,0.466,0.468,0.47,0.47,0.439,0.445,0.448,0.45
436,0.464,0.465,0.468,0.469,0.47,0.439,0.445,0.449,0.449
437,0.463,0.465,0.467,0.468,0.469,0.438,0.444,0.448,0.448
438,0.462,0.465,0.466,0.467,0.468,0.437,0.444,0.448,0.448
439,0.461,0.464,0.466,0.466,0.467,0.436,0.443,0.447,0.447
440,0.46,0.463,0.465,0.466,0.466,0.436,0.443,0.446,0.446
441,0.46,0.463,0.465,0.466,0.466,0.436,0.442,0.446,0.446
442,0.46,0.463,0.465,0.466,0.466,0.436,0.442,0.446,0.446
443,0.46,0.463,0.464,0.466,0.466,0.435,0.441,0.446,0.446
444,0.46,0.463,0.464,0.466,0.466,0.435,0.441,0.444,0.446
445,0.459,0.461,0.464,0.465,0.466,0.434,0.44,0.444,0.444
446,0.458,0.46,0.463,0.464,0.466,0.433,0.439,0.443,0.443
447,0.457,0.46,0.462,0.463,0.464,0.433,0.439,0.443,0.443
448,0.457,0.46,0.462,0.463,0.464,0.433,0.439,0.443,0.443
449,0.457,0.46,0.462,0.463,0.464,0.433,0.439,0.443,0.443
450,0.456,0.459,0.462,0.462,0.464,0.432,0.438,0.442,0.442
451,0.456,0.459,0.462,0.462,0.464,0.431,0.437,0.441,0.442
452,0.456,0.458,0.46,0.462,0.464,0.43,0.436,0.441,0.441
453,0.456,0.458,0.46,0.461,0.463,0.43,0.436,0.44,0.441
454,0.455,0.458,0.46,0.461,0.463,0.43,0.436,0.44,0.441
455,0.455,0.457,0.459,0.461,0.462,0.429,0.436,0.439,0.44
456,0.452,0.456,0.457,0.46,0.46,0.427,0.434,0.437,0.439
457,0.451,0.455,0.456,0.458,0.46,0.426,0.432,0.436,0.436
458,0.449,0.453,0.454,0.456,0.457,0.424,0.43,0.433,0.434
459,0.448,0.451,0.453,0.455,0.456,0.422,0.428,0.432,0.432
460,0.448,0.451,0.453,0.455,0.456,0.423,0.429,0.432,0.433
461,0.448,0.452,0.454,0.455,0.456,0.423,0.429,0.433,0.435
462,0.449,0.453,0.454,0.455,0.456,0.423,0.43,0.434,0.435
463,0.448,0.452,0.453,0.455,0.456,0.423,0.43,0.434,0.435
464,0.447,0.452,0.453,0.454,0.455,0.422,0.429,0.433,0.434
465,0.447,0.451,0.453,0.454,0.454,0.421,0.429,0.432,0.433
466,0.445,0.449,0.452,0.454,0.453,0.42,0.428,0.431,0.432
467,0.445,0.449,0.451,0.454,0.453,0.419,0.427,0.431,0.431
468,0.444,0.449,0.451,0.454,0.453,0.419,0.427,0.431,0.431
469,0.444,0.449,0.45,0.453,0.452,0.419,0.426,0.43,0.431
470,0.444,0.448,0.449,0.451,0.452,0.417,0.424,0.43,0.429
471,0.443,0.447,0.447,0.449,0.45,0.416,0.422,0.427,0.428
472,0.441,0.445,0.447,0.448,0.45,0.414,0.422,0.426,0.427
473,0.44,0.444,0.445,0.447,0.449,0.413,0.42,0.426,0.425
474,0.44,0.443,0.445,0.446,0.447,0.412,0.42,0.424,0.425
475,0.439,0.441,0.445,0.446,0.445,0.412,0.42,0.423,0.424
476,0.436,0.439,0.444,0.445,0.445,0.41,0.419,0.422,0.422
477,0.435,0.438,0.44,0.443,0.443,0.409,0.416,0.42,0.42
478,0.433,0.437,0.439,0.441,0.441,0.408,0.415,0.418,0.42
479,0.432,0.437,0.438,0.44,0.441,0.406,0.413,0.416,0.418
480,0.43,0.435,0.436,0.438,0.438,0.402,0.41,0.413,0.415
481,0.426,0.43,0.431,0.434,0.433,0.398,0.406,0.409,0.41
482,0.422,0.425,0.426,0.428,0.428,0.394,0.401,0.404,0.405
483,0.421,0.424,0.425,0.427,0.427,0.393,0.4,0.403,0.403
484,0.423,0.426,0.428,0.429,0.43,0.397,0.403,0.406,0.406
485,0.424,0.429,0.43,0.432,0.432,0.399,0.407,0.41,0.411
486,0.424,0.429,0.43,0.432,0.432,0.399,0.406,0.41,0.41
487,0.423,0.428,0.43,0.431,0.432,0.399,0.405,0.409,0.409
488,0.423,0.428,0.43,0.431,0.432,0.399,0.405,0.409,0.41
489,0.423,0.427,0.43,0.431,0.432,0.398,0.405,0.408,0.41
490,0.421,0.424,0.428,0.428,0.429,0.395,0.402,0.406,0.408
491,0.42,0.423,0.426,0.427,0.427,0.394,0.401,0.405,0.406
492,0.421,0.425,0.427,0.428,0.429,0.395,0.403,0.406,0.408
493,0.421,0.425,0.428,0.429,0.43,0.396,0.403,0.407,0.408
494,0.42,0.422,0.426,0.428,0.428,0.394,0.402,0.407,0.407
495,0.417,0.419,0.422,0.426,0.427,0.392,0.4,0.403,0.404
496,0.415,0.419,0.422,0.423,0.424,0.389,0.397,0.401,0.402
497,0.414,0.418,0.422,0.422,0.423,0.389,0.397,0.4,0.401
498,0.414,0.418,0.422,0.422,0.422,0.388,0.397,0.4,0.401
499,0.414,0.417,0.42,0.421,0.422,0.388,0.396,0.4,0.401
500,0.413,0.416,0.419,0.42,0.422,0.385,0.395,0.398,0.4
501,0.411,0.415,0.419,0.419,0.421,0.384,0.393,0.397,0.399
502,0.409,0.413,0.417,0.418,0.419,0.381,0.391,0.395,0.396
503,0.407,0.412,0.415,0.415,0.416,0.38,0.389,0.394,0.394
504,0.407,0.411,0.414,0.415,0.416,0.379,0.388,0.392,0.393
505,0.406,0.41,0.413,0.413,0.415,0.377,0.387,0.39,0.391
506,0.404,0.41,0.412,0.413,0.414,0.376,0.384,0.388,0.389
507,0.403,0.408,0.41,0.412,0.413,0.374,0.383,0.387,0.388
508,0.402,0.407,0.409,0.41,0.41,0.373,0.382,0.385,0.387
509,0.401,0.405,0.408,0.409,0.41,0.373,0.381,0.384,0.385
510,0.4,0.404,0.407,0.408,0.409,0.371,0.38,0.384,0.385
511,0.4,0.403,0.407,0.407,0.408,0.371,0.38,0.382,0.384
512,0.4,0.402,0.406,0.407,0.408,0.371,0.379,0.382,0.384
513,0.399,0.402,0.406,0.407,0.408,0.37,0.378,0.381,0.383
514,0.398,0.401,0.404,0.405,0.407,0.368,0.377,0.381,0.382
515,0.395,0.399,0.401,0.403,0.404,0.366,0.374,0.378,0.379
516,0.394,0.397,0.4,0.4,0.402,0.364,0.373,0.376,0.377
517,0.393,0.396,0.399,0.4,0.401,0.364,0.373,0.375,0.377
518,0.394,0.396,0.4,0.401,0.402,0.364,0.373,0.377,0.378
519,0.394,0.397,0.4,0.401,0.402,0.365,0.374,0.377,0.379
520,0.393,0.397,0.4,0.401,0.402,0.365,0.373,0.377,0.379
521,0.39,0.395,0.399,0.399,0.4,0.362,0.37,0.375,0.376
522,0.39,0.393,0.396,0.396,0.397,0.36,0.368,0.372,0.374
523,0.386,0.389,0.394,0.393,0.395,0.357,0.366,0.369,0.371
524,0.385,0.387,0.39,0.392,0.392,0.355,0.365,0.367,0.369
525,0.383,0.385,0.388,0.39,0.391,0.353,0.363,0.365,0.366
526,0.382,0.384,0.386,0.388,0.388,0.352,0.362,0.364,0.365
527,0.382,0.385,0.387,0.388,0.389,0.354,0.362,0.364,0.365
528,0.384,0.388,0.39,0.39,0.392,0.358,0.366,0.367,0.369
529,0.386,0.391,0.394,0.394,0.395,0.36,0.368,0.372,0.374
530,0.385,0.389,0.393,0.394,0.395,0.358,0.366,0.37,0.373
531,0.382,0.385,0.39,0.39,0.391,0.354,0.362,0.366,0.369
532,0.381,0.385,0.389,0.39,0.391,0.353,0.362,0.366,0.368
533,0.381,0.385,0.389,0.39,0.391,0.354,0.362,0.366,0.368
534,0.381,0.386,0.389,0.39,0.391,0.354,0.362,0.366,0.368
535,0.381,0.384,0.387,0.39,0.39,0.353,0.361,0.365,0.368
536,0.38,0.384,0.387,0.388,0.388,0.352,0.36,0.363,0.366
537,0.379,0.383,0.386,0.386,0.388,0.35,0.358,0.361,0.365
538,0.374,0.378,0.381,0.382,0.384,0.346,0.355,0.359,0.361
539,0.371,0.374,0.377,0.379,0.382,0.343,0.351,0.355,0.357
540,0.371,0.374,0.378,0.379,0.38,0.343,0.351,0.355,0.355
541,0.374,0.377,0.38,0.382,0.382,0.346,0.353,0.358,0.359
542,0.376,0.38,0.383,0.385,0.386,0.35,0.357,0.362,0.364
543,0.376,0.379,0.384,0.385,0.386,0.35,0.358,0.362,0.364
544,0.374,0.377,0.381,0.382,0.384,0.347,0.357,0.361,0.362
545,0.372,0.376,0.379,0.381,0.381,0.346,0.355,0.359,0.36
546,0.372,0.376,0.379,0.38,0.381,0.345,0.355,0.358,0.359
547,0.372,0.376,0.379,0.38,0.381,0.344,0.353,0.358,0.358
548,0.371,0.375,0.379,0.38,0.381,0.344,0.353,0.357,0.358
549,0.369,0.374,0.378,0.38,0.38,0.343,0.352,0.357,0.358
550,0.367,0.372,0.376,0.377,0.377,0.341,0.35,0.354,0.355
551,0.365,0.37,0.374,0.375,0.375,0.338,0.348,0.352,0.352
552,0.364,0.37,0.373,0.374,0.374,0.338,0.347,0.351,0.351
553,0.364,0.369,0.372,0.373,0.374,0.338,0.347,0.351,0.351
554,0.364,0.369,0.372,0.373,0.374,0.337,0.346,0.35,0.351
555,0.363,0.368,0.371,0.373,0.373,0.337,0.346,0.35,0.351
556,0.363,0.367,0.37,0.371,0.372,0.335,0.345,0.348,0.349
557,0.362,0.366,0.369,0.371,0.371,0.334,0.344,0.347,0.348
558,0.361,0.364,0.368,0.369,0.369,0.332,0.342,0.345,0.348
559,0.36,0.364,0.367,0.368,0.368,0.331,0.341,0.344,0.346
560,0.354,0.359,0.36,0.361,0.362,0.329,0.338,0.341,0.342
561,0.352,0.356,0.358,0.358,0.36,0.328,0.336,0.34,0.34
562,0.35,0.355,0.357,0.357,0.359,0.327,0.335,0.339,0.339
563,0.347,0.353,0.356,0.355,0.358,0.325,0.332,0.337,0.337
564,0.346,0.35,0.354,0.354,0.356,0.324,0.332,0.336,0.336
565,0.346,0.35,0.353,0.353,0.355,0.324,0.331,0.335,0.335
566,0.347,0.35,0.354,0.354,0.356,0.324,0.331,0.336,0.336
567,0.347,0.35,0.354,0.355,0.356,0.324,0.331,0.336,0.336
568,0.345,0.349,0.352,0.353,0.355,0.323,0.33,0.335,0.335
569,0.343,0.347,0.351,0.352,0.353,0.321,0.328,0.333,0.333
570,0.343,0.346,0.35,0.351,0.353,0.32,0.328,0.332,0.333
571,0.342,0.346,0.35,0.351,0.353,0.32,0.327,0.331,0.333
572,0.343,0.346,0.35,0.351,0.352,0.32,0.327,0.331,0.333
573,0.342,0.346,0.35,0.351,0.352,0.32,0.327,0.331,0.333
574,0.342,0.347,0.35,0.351,0.352,0.319,0.327,0.331,0.332
575,0.342,0.347,0.35,0.351,0.352,0.319,0.327,0.331,0.332
576,0.342,0.347,0.35,0.351,0.353,0.32,0.328,0.332,0.332
577,0.343,0.347,0.35,0.351,0.352,0.32,0.327,0.332,0.332
578,0.342,0.346,0.349,0.35,0.352,0.32,0.327,0.331,0.331
579,0.34,0.345,0.349,0.349,0.351,0.319,0.326,0.33,0.33
580,0.34,0.344,0.348,0.348,0.35,0.318,0.324,0.329,0.329
581,0.34,0.343,0.346,0.347,0.348,0.316,0.323,0.328,0.328
582,0.339,0.342,0.346,0.346,0.348,0.316,0.323,0.327,0.327
583,0.338,0.342,0.345,0.345,0.347,0.315,0.322,0.327,0.327
584,0.337,0.341,0.344,0.344,0.346,0.314,0.321,0.326,0.325
585,0.336,0.34,0.343,0.344,0.345,0.314,0.32,0.325,0.325
586,0.335,0.338,0.342,0.342,0.345,0.313,0.318,0.323,0.323
587,0.334,0.338,0.341,0.341,0.343,0.312,0.317,0.322,0.322
588,0.334,0.337,0.34,0.341,0.342,0.31,0.316,0.321,0.321
589,0.333,0.337,0.34,0.34,0.342,0.31,0.316,0.321,0.321
590,0.333,0.337,0.34,0.34,0.342,0.31,0.317,0.321,0.321
591,0.332,0.337,0.339,0.34,0.342,0.31,0.316,0.321,0.321
592,0.331,0.335,0.338,0.339,0.34,0.309,0.315,0.32,0.32
593,0.33,0.333,0.336,0.337,0.339,0.307,0.313,0.318,0.318
594,0.329,0.333,0.336,0.336,0.337,0.306,0.312,0.316,0.317
595,0.328,0.333,0.336,0.336,0.337,0.305,0.311,0.315,0.315
596,0.329,0.333,0.336,0.336,0.337,0.305,0.312,0.316,0.316
597,0.329,0.333,0.336,0.337,0.338,0.306,0.312,0.317,0.318
598,0.33,0.334,0.337,0.338,0.339,0.306,0.314,0.318,0.318
599,0.33,0.334,0.336,0.338,0.339,0.306,0.314,0.318,0.318
600,0.329,0.333,0.335,0.336,0.337,0.305,0.312,0.317,0.317
601,0.327,0.33,0.332,0.334,0.334,0.303,0.309,0.313,0.314
602,0.325,0.328,0.331,0.332,0.333,0.301,0.308,0.311,0.311
603,0.324,0.328,0.331,0.331,0.332,0.301,0.308,0.311,0.311
604,0.325,0.329,0.331,0.332,0.333,0.301,0.307,0.311,0.311
605,0.325,0.329,0.331,0.332,0.333,0.304,0.309,0.313,0.314
606,0.326,0.329,0.331,0.334,0.334,0.304,0.309,0.314,0.314
607,0.325,0.329,0.332,0.333,0.334,0.302,0.309,0.313,0.313
608,0.325,0.329,0.331,0.332,0.334,0.3,0.306,0.311,0.311
609,0.324,0.328,0.33,0.331,0.333,0.299,0.306,0.31,0.31
610,0.324,0.328,0.33,0.331,0.333,0.3,0.306,0.31,0.311
611,0.324,0.328,0.331,0.331,0.333,0.3,0.307,0.312,0.311
612,0.324,0.328,0.33,0.331,0.333,0.3,0.307,0.312,0.311
613,0.323,0.328,0.33,0.331,0.333,0.3,0.307,0.312,0.311
614,0.323,0.327,0.33,0.33,0.332,0.3,0.306,0.31,0.31
615,0.322,0.326,0.329,0.329,0.33,0.299,0.305,0.31,0.309
616,0.321,0.325,0.328,0.328,0.33,0.298,0.304,0.309,0.309
617,0.321,0.325,0.327,0.328,0.329,0.297,0.303,0.308,0.308
618,0.32,0.324,0.326,0.327,0.328,0.297,0.302,0.307,0.308
619,0.319,0.323,0.326,0.327,0.328,0.296,0.302,0.307,0.307
620,0.319,0.322,0.326,0.326,0.328,0.295,0.301,0.306,0.306
621,0.319,0.322,0.326,0.326,0.327,0.294,0.3,0.305,0.305
622,0.317,0.321,0.324,0.323,0.326,0.294,0.299,0.304,0.304
623,0.317,0.32,0.323,0.323,0.325,0.293,0.298,0.303,0.303
624,0.316,0.318,0.321,0.322,0.324,0.291,0.297,0.302,0.302
625,0.314,0.318,0.32,0.321,0.323,0.291,0.297,0.301,0.301
626,0.314,0.318,0.32,0.321,0.323,0.291,0.297,0.301,0.301
627,0.315,0.318,0.32,0.321,0.323,0.291,0.297,0.301,0.301
628,0.315,0.319,0.321,0.322,0.323,0.291,0.298,0.302,0.302
629,0.315,0.319,0.321,0.322,0.323,0.291,0.298,0.302,0.302
630,0.314,0.318,0.321,0.321,0.323,0.291,0.298,0.302,0.302
631,0.314,0.318,0.32,0.321,0.323,0.29,0.297,0.301,0.301
632,0.313,0.316,0.32,0.32,0.322,0.289,0.295,0.3,0.3
633,0.313,0.316,0.319,0.32,0.321,0.289,0.295,0.3,0.299
634,0.312,0.316,0.318,0.32,0.32,0.289,0.295,0.3,0.299
635,0.312,0.316,0.318,0.32,0.32,0.289,0.295,0.299,0.299
636,0.311,0.316,0.318,0.32,0.32,0.289,0.294,0.299,0.299
637,0.311,0.315,0.318,0.319,0.32,0.288,0.294,0.298,0.299
638,0.311,0.315,0.318,0.318,0.32,0.288,0.294,0.298,0.299
639,0.311,0.315,0.318,0.318,0.32,0.288,0.293,0.298,0.298
640,0.31,0.314,0.317,0.317,0.319,0.287,0.293,0.297,0.298
641,0.309,0.312,0.316,0.316,0.317,0.286,0.292,0.297,0.296
642,0.309,0.312,0.315,0.315,0.317,0.285,0.29,0.295,0.295
643,0.309,0.312,0.314,0.315,0.317,0.284,0.29,0.294,0.295
644,0.308,0.311,0.313,0.315,0.316,0.284,0.289,0.294,0.294
645,0.308,0.31,0.313,0.314,0.316,0.284,0.289,0.293,0.293
646,0.307,0.31,0.313,0.313,0.315,0.283,0.289,0.293,0.293
647,0.306,0.31,0.312,0.313,0.314,0.283,0.288,0.293,0.292
648,0.305,0.309,0.312,0.313,0.313,0.283,0.287,0.292,0.292
649,0.305,0.308,0.311,0.312,0.313,0.282,0.287,0.292,0.291
650,0.305,0.308,0.311,0.311,0.313,0.281,0.287,0.291,0.291
651,0.305,0.308,0.31,0.311,0.312,0.281,0.286,0.29,0.29
652,0.305,0.308,0.31,0.31,0.312,0.281,0.286,0.29,0.29
653,0.304,0.307,0.31,0.31,0.312,0.281,0.286,0.29,0.29
654,0.303,0.307,0.31,0.31,0.312,0.281,0.285,0.29,0.29
655,0.303,0.306,0.309,0.309,0.311,0.28,0.285,0.29,0.29
656,0.302,0.305,0.308,0.308,0.309,0.278,0.283,0.288,0.288
657,0.3,0.304,0.306,0.307,0.308,0.277,0.282,0.286,0.286
658,0.3,0.304,0.305,0.306,0.307,0.276,0.281,0.285,0.285
659,0.3,0.303,0.305,0.306,0.307,0.276,0.282,0.285,0.285
660,0.3,0.304,0.305,0.307,0.308,0.277,0.282,0.287,0.286
661,0.301,0.304,0.306,0.307,0.309,0.278,0.283,0.287,0.287
662,0.301,0.305,0.307,0.308,0.309,0.278,0.283,0.288,0.287
663,0.301,0.304,0.307,0.308,0.309,0.278,0.283,0.288,0.287
664,0.3,0.304,0.306,0.307,0.309,0.277,0.283,0.287,0.287
665,0.3,0.303,0.306,0.306,0.308,0.276,0.282,0.287,0.287
666,0.299,0.302,0.305,0.306,0.307,0.276,0.281,0.286,0.286
667,0.299,0.302,0.305,0.305,0.306,0.275,0.281,0.285,0.285
668,0.298,0.301,0.303,0.305,0.305,0.274,0.28,0.284,0.284
669,0.297,0.301,0.303,0.304,0.305,0.274,0.28,0.284,0.284
670,0.297,0.3,0.302,0.304,0.305,0.274,0.279,0.284,0.284
671,0.297,0.3,0.302,0.304,0.305,0.274,0.279,0.284,0.284
672,0.297,0.299,0.302,0.304,0.305,0.274,0.279,0.284,0.284
673,0.297,0.299,0.302,0.303,0.304,0.274,0.279,0.283,0.283
674,0.297,0.299,0.302,0.303,0.304,0.273,0.278,0.283,0.283
675,0.296,0.299,0.302,0.302,0.303,0.272,0.277,0.282,0.283
676,0.295,0.298,0.301,0.301,0.303,0.272,0.277,0.282,0.282
677,0.294,0.297,0.3,0.3,0.302,0.271,0.276,0.281,0.281
678,0.292,0.297,0.298,0.299,0.301,0.27,0.275,0.28,0.279
679,0.292,0.296,0.297,0.298,0.3,0.27,0.274,0.279,0.278
680,0.292,0.296,0.297,0.298,0.3,0.269,0.274,0.279,0.278
681,0.292,0.296,0.297,0.298,0.3,0.269,0.274,0.279,0.279
682,0.292,0.296,0.298,0.299,0.3,0.269,0.275,0.279,0.28
683,0.293,0.296,0.299,0.299,0.3,0.27,0.275,0.28,0.28
684,0.292,0.296,0.299,0.299,0.3,0.27,0.275,0.28,0.28
685,0.292,0.296,0.299,0.299,0.3,0.27,0.275,0.28,0.28
686,0.292,0.295,0.298,0.299,0.3,0.27,0.275,0.28,0.279
687,0.292,0.295,0.298,0.298,0.299,0.269,0.274,0.279,0.279
688,0.291,0.294,0.296,0.297,0.299,0.268,0.274,0.278,0.279
689,0.291,0.293,0.295,0.297,0.298,0.268,0.273,0.278,0.278
690,0.29,0.292,0.295,0.296,0.297,0.268,0.272,0.278,0.277
691,0.289,0.292,0.295,0.296,0.296,0.267,0.272,0.278,0.277
692,0.289,0.292,0.295,0.296,0.296,0.267,0.272,0.277,0.277
693,0.288,0.292,0.294,0.295,0.296,0.267,0.272,0.276,0.275
694,0.287,0.291,0.293,0.294,0.295,0.266,0.271,0.274,0.274
695,0.287,0.29,0.292,0.293,0.294,0.265,0.269,0.274,0.273
696,0.285,0.288,0.29,0.291,0.292,0.263,0.267,0.271,0.273
697,0.285,0.286,0.288,0.29,0.291,0.262,0.267,0.27,0.272
698,0.285,0.286,0.288,0.289,0.29,0.261,0.265,0.269,0.27
699,0.285,0.286,0.288,0.29,0.291,0.261,0.266,0.27,0.27
700,0.285,0.286,0.289,0.291,0.291,0.262,0.267,0.27,0.271
701,0.285,0.288,0.29,0.292,0.292,0.263,0.269,0.273,0.273
702,0.285,0.288,0.291,0.292,0.293,0.264,0.269,0.274,0.273
703,0.285,0.288,0.291,0.292,0.293,0.264,0.269,0.274,0.274
704,0.285,0.288,0.291,0.291,0.293,0.264,0.269,0.274,0.274
705,0.284,0.288,0.291,0.291,0.292,0.263,0.268,0.273,0.273
706,0.284,0.287,0.29,0.29,0.291,0.263,0.268,0.272,0.272
707,0.284,0.287,0.289,0.29,0.291,0.262,0.267,0.271,0.271
708,0.283,0.286,0.289,0.289,0.291,0.262,0.267,0.271,0.271
709,0.283,0.286,0.288,0.289,0.29,0.262,0.267,0.27,0.27
710,0.282,0.285,0.288,0.288,0.289,0.262,0.266,0.27,0.27
711,0.282,0.285,0.287,0.288,0.289,0.262,0.266,0.27,0.269
712,0.281,0.284,0.287,0.287,0.289,0.261,0.266,0.27,0.269
713,0.281,0.284,0.287,0.287,0.289,0.261,0.265,0.269,0.269
714,0.281,0.283,0.287,0.287,0.288,0.26,0.264,0.268,0.269
715,0.281,0.283,0.286,0.287,0.288,0.26,0.264,0.268,0.268
716,0.281,0.283,0.285,0.287,0.288,0.26,0.264,0.268,0.268
717,0.281,0.283,0.285,0.286,0.287,0.259,0.264,0.268,0.268
718,0.281,0.282,0.285,0.286,0.287,0.26,0.264,0.268,0.269
719,0.28,0.282,0.285,0.286,0.287,0.26,0.264,0.268,0.268
720,0.279,0.282,0.285,0.285,0.286,0.259,0.264,0.268,0.268
721,0.279,0.282,0.285,0.285,0.286,0.259,0.263,0.268,0.267
722,0.279,0.281,0.284,0.285,0.286,0.258,0.263,0.267,0.267
723,0.278,0.28,0.284,0.284,0.285,0.257,0.263,0.266,0.266
724,0.278,0.28,0.283,0.284,0.285,0.257,0.262,0.265,0.265
725,0.278,0.28,0.282,0.283,0.284,0.257,0.261,0.265,0.264
726,0.277,0.279,0.281,0.282,0.283,0.256,0.261,0.264,0.263
727,0.277,0.278,0.281,0.282,0.283,0.256,0.26,0.264,0.263
728,0.277,0.278,0.281,0.281,0.282,0.256,0.259,0.263,0.262
729,0.277,0.278,0.28,0.281,0.282,0.256,0.259,0.262,0.262
730,0.276,0.278,0.279,0.28,0.281,0.255,0.259,0.261,0.262
731,0.275,0.276,0.279,0.28,0.28,0.255,0.259,0.261,0.261
732,0.274,0.276,0.278,0.279,0.279,0.255,0.259,0.261,0.261
733,0.274,0.276,0.277,0.279,0.278,0.255,0.259,0.261,0.261
734,0.274,0.276,0.277,0.279,0.278,0.255,0.259,0.261,0.261
735,0.274,0.275,0.277,0.279,0.278,0.255,0.259,0.261,0.261
736,0.273,0.275,0.277,0.278,0.278,0.255,0.259,0.261,0.261
737,0.273,0.275,0.277,0.277,0.278,0.255,0.259,0.261,0.261
738,0.273,0.275,0.277,0.277,0.278,0.253,0.258,0.26,0.261
739,0.272,0.274,0.276,0.277,0.278,0.252,0.258,0.26,0.26
740,0.272,0.275,0.277,0.277,0.278,0.252,0.257,0.26,0.26
741,0.271,0.274,0.276,0.277,0.277,0.252,0.257,0.259,0.26
742,0.27,0.274,0.276,0.276,0.277,0.252,0.257,0.26,0.26
743,0.27,0.273,0.276,0.276,0.277,0.251,0.257,0.26,0.26
744,0.27,0.273,0.276,0.276,0.277,0.251,0.257,0.26,0.26
745,0.27,0.273,0.276,0.276,0.277,0.25,0.256,0.26,0.26
746,0.269,0.273,0.276,0.276,0.277,0.25,0.255,0.259,0.26
747,0.269,0.272,0.276,0.276,0.277,0.25,0.255,0.259,0.26
748,0.269,0.272,0.275,0.275,0.277,0.25,0.255,0.259,0.259
749,0.269,0.272,0.274,0.275,0.277,0.25,0.255,0.258,0.259
750,0.269,0.272,0.273,0.275,0.276,0.249,0.254,0.258,0.259
751,0.269,0.272,0.273,0.275,0.276,0.249,0.254,0.257,0.259
752,0.269,0.272,0.274,0.275,0.276,0.249,0.254,0.257,0.258
753,0.269,0.272,0.274,0.275,0.276,0.249,0.254,0.257,0.258
754,0.268,0.272,0.274,0.275,0.276,0.249,0.254,0.257,0.258
755,0.268,0.272,0.274,0.275,0.276,0.249,0.254,0.258,0.258
756,0.267,0.272,0.274,0.275,0.276,0.248,0.253,0.256,0.257
757,0.267,0.272,0.273,0.275,0.276,0.248,0.253,0.255,0.256
758,0.267,0.271,0.273,0.275,0.276,0.248,0.253,0.256,0.257
759,0.267,0.271,0.273,0.275,0.275,0.248,0.253,0.256,0.257
760,0.268,0.27,0.273,0.275,0.275,0.248,0.253,0.257,0.257
761,0.267,0.27,0.273,0.275,0.274,0.246,0.253,0.256,0.257
762,0.267,0.27,0.272,0.273,0.274,0.246,0.251,0.256,0.256
763,0.264,0.267,0.27,0.271,0.272,0.245,0.251,0.253,0.254
764,0.264,0.267,0.269,0.271,0.272,0.244,0.249,0.253,0.254
765,0.264,0.266,0.269,0.271,0.271,0.245,0.249,0.253,0.254
766,0.264,0.267,0.27,0.271,0.271,0.245,0.249,0.254,0.254
767,0.265,0.267,0.271,0.271,0.273,0.246,0.25,0.254,0.254
768,0.265,0.268,0.27,0.271,0.273,0.247,0.251,0.254,0.255
769,0.265,0.269,0.271,0.272,0.274,0.247,0.251,0.254,0.255
770,0.263,0.269,0.271,0.272,0.272,0.247,0.251,0.256,0.256
771,0.263,0.269,0.27,0.272,0.272,0.247,0.251,0.256,0.256
772,0.264,0.269,0.271,0.271,0.272,0.247,0.25,0.256,0.256
773,0.264,0.268,0.27,0.27,0.271,0.244,0.247,0.256,0.256
774,0.264,0.267,0.27,0.27,0.27,0.244,0.249,0.255,0.256
775,0.264,0.266,0.27,0.27,0.271,0.245,0.248,0.255,0.255
776,0.263,0.266,0.269,0.27,0.271,0.245,0.248,0.255,0.255
777,0.263,0.266,0.269,0.268,0.271,0.245,0.248,0.254,0.255
778,0.263,0.266,0.269,0.269,0.271,0.244,0.248,0.254,0.255
779,0.263,0.266,0.268,0.268,0.269,0.243,0.246,0.253,0.253
780,0.263,0.266,0.268,0.268,0.269,0.243,0.246,0.253,0.252
781,0.262,0.265,0.268,0.268,0.267,0.242,0.246,0.252,0.252
782,0.262,0.265,0.27,0.268,0.268,0.242,0.246,0.252,0.252
783,0.262,0.264,0.269,0.268,0.268,0.242,0.246,0.252,0.252
784,0.26,0.264,0.266,0.268,0.268,0.242,0.247,0.252,0.252
785,0.26,0.265,0.266,0.267,0.267,0.242,0.247,0.252,0.252
786,0.26,0.265,0.266,0.267,0.267,0.241,0.245,0.252,0.252
787,0.26,0.263,0.266,0.267,0.267,0.241,0.244,0.25,0.25
788,0.258,0.262,0.266,0.264,0.267,0.24,0.244,0.25,0.25
789,0.258,0.259,0.264,0.264,0.266,0.24,0.244,0.25,0.25
790,0.257,0.259,0.263,0.264,0.266,0.24,0.244,0.249,0.249
791,0.257,0.259,0.263,0.263,0.266,0.24,0.244,0.249,0.249
792,0.257,0.259,0.262,0.263,0.265,0.239,0.244,0.249,0.249
793,0.256,0.259,0.262,0.263,0.265,0.239,0.244,0.249,0.249
794,0.256,0.259,0.262,0.263,0.265,0.239,0.244,0.249,0.25
795,0.257,0.259,0.262,0.263,0.265,0.239,0.244,0.249,0.25
796,0.256,0.259,0.262,0.263,0.265,0.239,0.244,0.249,0.25
797,0.256,0.259,0.262,0.263,0.265,0.24,0.244,0.249,0.249
798,0.256,0.26,0.262,0.262,0.265,0.24,0.244,0.249,0.249
799,0.256,0.259,0.262,0.262,0.263,0.239,0.244,0.248,0.247
800,0.256,0.259,0.262,0.26,0.263,0.239,0.244,0.247,0.247
801,0.256,0.259,0.261,0.26,0.262,0.238,0.243,0.247,0.247
802,0.255,0.257,0.259,0.259,0.26,0.237,0.241,0.246,0.245
803,0.254,0.257,0.258,0.259,0.259,0.236,0.241,0.245,0.244
804,0.253,0.256,0.258,0.258,0.259,0.235,0.241,0.244,0.243
805,0.252,0.255,0.256,0.257,0.258,0.235,0.24,0.243,0.242
806,0.252,0.254,0.256,0.256,0.258,0.235,0.24,0.242,0.242
807,0.251,0.253,0.255,0.256,0.258,0.234,0.239,0.242,0.242
808,0.251,0.253,0.255,0.256,0.258,0.233,0.238,0.241,0.242
809,0.251,0.253,0.255,0.255,0.257,0.233,0.238,0.241,0.242
810,0.251,0.253,0.254,0.255,0.257,0.233,0.238,0.241,0.242
811,0.251,0.253,0.254,0.255,0.257,0.233,0.238,0.241,0.241
812,0.251,0.253,0.254,0.255,0.257,0.233,0.238,0.241,0.241
813,0.25,0.253,0.254,0.255,0.257,0.233,0.238,0.241,0.241
814,0.25,0.253,0.254,0.255,0.256,0.232,0.238,0.241,0.241
815,0.249,0.253,0.254,0.255,0.255,0.232,0.235,0.241,0.24
816,0.249,0.252,0.253,0.254,0.255,0.231,0.233,0.241,0.239
817,0.246,0.25,0.248,0.251,0.254,0.231,0.233,0.241,0.239
818,0.246,0.25,0.249,0.251,0.254,0.23,0.233,0.239,0.239
819,0.245,0.25,0.25,0.251,0.253,0.229,0.233,0.238,0.239
820,0.244,0.249,0.25,0.25,0.253,0.228,0.233,0.235,0.238
821,0.243,0.248,0.247,0.249,0.25,0.228,0.231,0.233,0.234
822,0.238,0.24,0.24,0.243,0.243,0.221,0.224,0.226,0.227
823,0.236,0.238,0.238,0.239,0.241,0.219,0.219,0.222,0.222
824,0.24,0.24,0.245,0.24,0.241,0.22,0.223,0.224,0.227
825,0.243,0.244,0.247,0.245,0.244,0.224,0.228,0.228,0.23
826,0.244,0.245,0.248,0.246,0.248,0.229,0.233,0.234,0.236
827,0.244,0.245,0.248,0.246,0.25,0.229,0.233,0.236,0.236
828,0.244,0.246,0.248,0.246,0.25,0.229,0.233,0.235,0.236
829,0.244,0.246,0.249,0.248,0.25,0.229,0.233,0.236,0.236
830,0.244,0.246,0.249,0.249,0.25,0.23,0.234,0.236,0.236
831,0.244,0.247,0.25,0.25,0.251,0.231,0.235,0.237,0.238
832,0.244,0.247,0.251,0.25,0.253,0.229,0.236,0.239,0.239
833,0.242,0.247,0.251,0.25,0.249,0.229,0.233,0.239,0.238
834,0.241,0.245,0.246,0.246,0.246,0.226,0.228,0.233,0.232
835,0.241,0.244,0.245,0.246,0.245,0.225,0.228,0.232,0.231
836,0.243,0.245,0.246,0.247,0.247,0.227,0.23,0.233,0.233
837,0.243,0.245,0.246,0.247,0.248,0.229,0.231,0.235,0.234
838,0.244,0.247,0.247,0.249,0.249,0.229,0.232,0.237,0.235
839,0.243,0.247,0.246,0.249,0.249,0.229,0.232,0.237,0.236
840,0.243,0.245,0.246,0.248,0.25,0.229,0.232,0.237,0.237
841,0.243,0.246,0.246,0.248,0.25,0.228,0.233,0.236,0.236
842,0.243,0.246,0.247,0.248,0.25,0.228,0.232,0.236,0.236
843,0.243,0.247,0.247,0.248,0.25,0.228,0.232,0.236,0.236
844,0.242,0.247,0.247,0.248,0.25,0.227,0.232,0.235,0.236
845,0.243,0.247,0.248,0.248,0.254,0.227,0.231,0.236,0.236
846,0.242,0.247,0.248,0.248,0.251,0.226,0.233,0.237,0.236
847,0.245,0.247,0.247,0.249,0.251,0.225,0.232,0.237,0.236
848,0.243,0.244,0.247,0.248,0.251,0.226,0.233,0.237,0.236
849,0.243,0.246,0.247,0.248,0.251,0.226,0.232,0.235,0.233
850,0.244,0.246,0.247,0.248,0.251,0.226,0.233,0.234,0.233
851,0.244,0.245,0.248,0.248,0.25,0.227,0.232,0.234,0.234
852,0.243,0.245,0.248,0.247,0.25,0.227,0.231,0.234,0.234
853,0.244,0.246,0.248,0.247,0.25,0.227,0.231,0.236,0.234
854,0.244,0.245,0.247,0.247,0.25,0.226,0.231,0.236,0.234
855,0.243,0.244,0.246,0.244,0.25,0.227,0.231,0.236,0.237
856,0.243,0.245,0.246,0.244,0.25,0.227,0.231,0.235,0.238
857,0.243,0.245,0.247,0.244,0.25,0.224,0.231,0.235,0.238
858,0.244,0.245,0.247,0.247,0.25,0.223,0.231,0.235,0.237
859,0.243,0.244,0.247,0.245,0.248,0.223,0.23,0.235,0.237
860,0.24,0.244,0.246,0.243,0.248,0.224,0.23,0.233,0.234
861,0.241,0.244,0.247,0.244,0.248,0.224,0.228,0.233,0.234
862,0.241,0.244,0.247,0.245,0.248,0.224,0.228,0.233,0.234
863,0.24,0.244,0.246,0.244,0.248,0.224,0.228,0.233,0.234
864,0.24,0.244,0.245,0.246,0.248,0.224,0.226,0.233,0.234
865,0.239,0.244,0.245,0.245,0.247,0.223,0.226,0.233,0.233
866,0.239,0.243,0.244,0.245,0.247,0.223,0.226,0.233,0.232
867,0.238,0.241,0.244,0.244,0.246,0.223,0.227,0.233,0.232
868,0.239,0.241,0.244,0.242,0.243,0.223,0.227,0.233,0.231
869,0.238,0.24,0.243,0.242,0.243,0.223,0.227,0.232,0.229
870,0.238,0.24,0.243,0.242,0.243,0.223,0.226,0.232,0.229
871,0.237,0.24,0.241,0.241,0.242,0.222,0.225,0.231,0.227
872,0.236,0.237,0.239,0.24,0.242,0.222,0.225,0.23,0.226
873,0.237,0.238,0.241,0.24,0.242,0.221,0.225,0.23,0.227
874,0.236,0.238,0.241,0.241,0.242,0.221,0.225,0.23,0.227
875,0.236,0.238,0.239,0.241,0.243,0.221,0.225,0.228,0.227
876,0.236,0.237,0.239,0.24,0.241,0.221,0.225,0.227,0.227
877,0.235,0.237,0.239,0.239,0.241,0.221,0.225,0.227,0.227
878,0.235,0.237,0.239,0.238,0.24,0.22,0.222,0.226,0.227
879,0.235,0.236,0.238,0.238,0.239,0.22,0.222,0.226,0.226
880,0.232,0.234,0.235,0.234,0.236,0.218,0.22,0.223,0.224
881,0.227,0.229,0.23,0.229,0.231,0.216,0.214,0.217,0.221
882,0.226,0.227,0.228,0.228,0.23,0.211,0.213,0.215,0.217
883,0.225,0.225,0.224,0.23,0.228,0.214,0.216,0.218,0.217
884,0.225,0.226,0.226,0.23,0.229,0.22,0.222,0.222,0.222
885,0.226,0.227,0.227,0.23,0.229,0.221,0.226,0.223,0.223
886,0.231,0.234,0.237,0.234,0.236,0.221,0.226,0.224,0.226
887,0.233,0.236,0.238,0.235,0.24,0.221,0.226,0.225,0.227
888,0.234,0.236,0.238,0.235,0.24,0.221,0.225,0.225,0.227
889,0.233,0.236,0.238,0.236,0.239,0.22,0.224,0.226,0.227
890,0.232,0.235,0.237,0.235,0.239,0.219,0.224,0.225,0.226
891,0.232,0.235,0.236,0.235,0.238,0.219,0.223,0.225,0.225
892,0.232,0.235,0.236,0.235,0.236,0.219,0.222,0.224,0.225
893,0.231,0.235,0.236,0.233,0.236,0.218,0.221,0.224,0.224
894,0.23,0.234,0.235,0.233,0.236,0.218,0.221,0.223,0.223
895,0.229,0.231,0.231,0.233,0.235,0.216,0.219,0.221,0.221
896,0.229,0.23,0.231,0.232,0.235,0.216,0.218,0.22,0.221
897,0.229,0.229,0.231,0.232,0.234,0.214,0.218,0.22,0.219
898,0.229,0.229,0.232,0.233,0.234,0.214,0.218,0.219,0.22
899,0.229,0.229,0.232,0.233,0.234,0.216,0.218,0.22,0.22
900,0.229,0.231,0.234,0.235,0.236,0.217,0.221,0.223,0.223
901,0.229,0.231,0.234,0.235,0.236,0.217,0.222,0.223,0.223
902,0.229,0.232,0.233,0.235,0.235,0.217,0.221,0.223,0.223
903,0.229,0.231,0.233,0.234,0.235,0.217,0.219,0.222,0.223
904,0.229,0.23,0.231,0.23,0.232,0.215,0.219,0.22,0.219
905,0.228,0.229,0.23,0.23,0.23,0.213,0.217,0.218,0.214
906,0.228,0.229,0.229,0.23,0.229,0.214,0.217,0.218,0.214
907,0.228,0.229,0.228,0.23,0.229,0.215,0.217,0.218,0.214
908,0.228,0.228,0.228,0.23,0.229,0.216,0.217,0.219,0.217
909,0.229,0.23,0.232,0.233,0.234,0.216,0.22,0.224,0.223
910,0.228,0.23,0.232,0.233,0.235,0.216,0.219,0.225,0.223
911,0.228,0.23,0.232,0.233,0.235,0.216,0.218,0.225,0.223
912,0.228,0.23,0.232,0.233,0.235,0.215,0.219,0.225,0.224
913,0.228,0.231,0.232,0.233,0.235,0.215,0.217,0.223,0.223
914,0.228,0.231,0.231,0.233,0.234,0.215,0.217,0.222,0.221
915,0.226,0.229,0.228,0.231,0.231,0.214,0.217,0.218,0.22
916,0.223,0.223,0.223,0.228,0.227,0.213,0.216,0.217,0.217
917,0.223,0.223,0.225,0.228,0.226,0.213,0.214,0.217,0.216
918,0.223,0.223,0.225,0.231,0.229,0.213,0.216,0.217,0.216
919,0.224,0.224,0.227,0.231,0.229,0.214,0.217,0.217,0.216
920,0.224,0.227,0.227,0.231,0.231,0.214,0.218,0.219,0.218
921,0.225,0.227,0.23,0.233,0.234,0.215,0.218,0.224,0.222
922,0.225,0.227,0.23,0.233,0.234,0.215,0.218,0.224,0.222
923,0.225,0.228,0.23,0.232,0.233,0.214,0.218,0.223,0.222
924,0.225,0.228,0.23,0.232,0.233,0.214,0.218,0.223,0.222
925,0.226,0.229,0.23,0.232,0.233,0.214,0.218,0.223,0.222
926,0.226,0.229,0.23,0.231,0.233,0.214,0.218,0.222,0.222
927,0.226,0.228,0.229,0.23,0.233,0.213,0.218,0.221,0.222
928,0.225,0.229,0.228,0.23,0.233,0.213,0.218,0.221,0.222
929,0.225,0.229,0.228,0.231,0.233,0.213,0.217,0.22,0.22
930,0.225,0.229,0.228,0.231,0.232,0.213,0.218,0.22,0.219
931,0.225,0.229,0.229,0.231,0.232,0.213,0.217,0.22,0.22
932,0.225,0.229,0.229,0.231,0.233,0.213,0.217,0.22,0.221
933,0.225,0.229,0.23,0.231,0.233,0.213,0.216,0.22,0.22
934,0.225,0.229,0.23,0.231,0.232,0.213,0.215,0.22,0.22
935,0.225,0.229,0.23,0.23,0.232,0.213,0.215,0.22,0.22
936,0.225,0.229,0.229,0.23,0.232,0.213,0.215,0.219,0.22
937,0.225,0.228,0.229,0.23,0.232,0.211,0.215,0.219,0.218
938,0.224,0.226,0.228,0.228,0.23,0.211,0.215,0.218,0.218
939,0.223,0.225,0.228,0.228,0.23,0.211,0.215,0.218,0.218
940,0.223,0.224,0.228,0.228,0.23,0.211,0.214,0.218,0.218
941,0.223,0.224,0.227,0.228,0.229,0.211,0.213,0.218,0.217
942,0.223,0.224,0.227,0.228,0.229,0.211,0.212,0.218,0.217
943,0.223,0.226,0.227,0.228,0.229,0.211,0.213,0.218,0.217
944,0.223,0.227,0.227,0.228,0.229,0.211,0.212,0.218,0.217
945,0.223,0.227,0.226,0.227,0.229,0.211,0.212,0.218,0.218
946,0.224,0.226,0.227,0.227,0.229,0.211,0.213,0.218,0.218
947,0.224,0.226,0.228,0.226,0.228,0.21,0.213,0.217,0.217
948,0.224,0.226,0.228,0.227,0.228,0.211,0.213,0.217,0.217
949,0.222,0.226,0.228,0.228,0.228,0.21,0.213,0.215,0.216
950,0.229,0.233,0.235,0.233,0.236,0.215,0.22,0.223,0.223
951,0.233,0.239,0.24,0.239,0.24,0.223,0.226,0.23,0.228
952,0.235,0.24,0.241,0.242,0.241,0.223,0.226,0.231,0.228
953,0.235,0.239,0.241,0.242,0.242,0.223,0.226,0.232,0.229
954,0.238,0.242,0.243,0.245,0.243,0.225,0.228,0.233,0.23
955,0.239,0.245,0.245,0.247,0.246,0.226,0.232,0.235,0.234
956,0.242,0.247,0.248,0.25,0.25,0.228,0.233,0.237,0.238
957,0.245,0.248,0.25,0.251,0.252,0.23,0.235,0.238,0.239
958,0.248,0.251,0.251,0.252,0.253,0.232,0.236,0.24,0.241
959,0.249,0.252,0.253,0.252,0.254,0.233,0.238,0.242,0.242
960,0.25,0.252,0.253,0.254,0.254,0.234,0.238,0.243,0.242
961,0.251,0.254,0.254,0.255,0.254,0.234,0.239,0.244,0.242
962,0.252,0.254,0.255,0.256,0.255,0.236,0.239,0.244,0.243
963,0.252,0.254,0.255,0.256,0.255,0.236,0.24,0.244,0.243
964,0.253,0.255,0.257,0.258,0.257,0.237,0.243,0.245,0.244
965,0.253,0.257,0.257,0.258,0.258,0.238,0.243,0.246,0.246
966,0.255,0.257,0.259,0.259,0.259,0.239,0.243,0.246,0.246
967,0.256,0.259,0.259,0.26,0.261,0.24,0.244,0.248,0.247
968,0.259,0.259,0.262,0.262,0.263,0.241,0.245,0.248,0.248
969,0.262,0.261,0.264,0.264,0.266,0.244,0.246,0.251,0.249
970,0.262,0.264,0.268,0.267,0.269,0.248,0.25,0.254,0.252
971,0.264,0.264,0.268,0.269,0.269,0.248,0.251,0.254,0.253
972,0.264,0.264,0.268,0.268,0.268,0.247,0.251,0.253,0.253
973,0.263,0.264,0.267,0.268,0.267,0.247,0.251,0.253,0.253
974,0.261,0.264,0.265,0.265,0.267,0.246,0.251,0.253,0.252
975,0.261,0.263,0.265,0.265,0.265,0.246,0.249,0.253,0.251
976,0.26,0.262,0.264,0.263,0.264,0.245,0.248,0.253,0.251
977,0.26,0.26,0.263,0.263,0.264,0.245,0.248,0.252,0.251
978,0.26,0.259,0.262,0.263,0.263,0.244,0.247,0.252,0.251
979,0.258,0.256,0.262,0.26,0.258,0.239,0.242,0.249,0.246
980,0.25,0.245,0.249,0.246,0.25,0.231,0.233,0.235,0.238
981,0.234,0.239,0.242,0.241,0.243,0.229,0.232,0.232,0.23
982,0.234,0.239,0.241,0.241,0.238,0.221,0.225,0.228,0.23
983,0.232,0.238,0.241,0.241,0.236,0.22,0.224,0.227,0.23
984,0.232,0.238,0.242,0.241,0.242,0.219,0.226,0.231,0.23
985,0.238,0.242,0.248,0.247,0.248,0.224,0.228,0.239,0.238
986,0.242,0.245,0.254,0.253,0.255,0.225,0.234,0.244,0.243
987,0.249,0.251,0.256,0.255,0.258,0.234,0.239,0.246,0.244
988,0.254,0.253,0.258,0.259,0.261,0.236,0.242,0.246,0.245
989,0.255,0.255,0.259,0.259,0.261,0.239,0.242,0.247,0.247
990,0.255,0.255,0.259,0.259,0.26,0.239,0.242,0.247,0.247
991,0.254,0.255,0.258,0.258,0.259,0.239,0.24,0.245,0.245
992,0.252,0.255,0.257,0.257,0.256,0.238,0.238,0.243,0.243
993,0.247,0.244,0.251,0.248,0.248,0.236,0.231,0.235,0.236
994,0.242,0.241,0.246,0.247,0.243,0.223,0.226,0.235,0.232
995,0.24,0.234,0.243,0.241,0.238,0.223,0.218,0.229,0.221
996,0.24,0.234,0.242,0.238,0.238,0.221,0.218,0.226,0.219
997,0.236,0.231,0.242,0.233,0.238,0.217,0.218,0.223,0.219
998,0.239,0.232,0.242,0.237,0.238,0.219,0.219,0.227,0.226
999,0.238,0.233,0.242,0.24,0.239,0.22,0.225,0.228,0.23
1000.00,0.239,0.238,0.244,0.243,0.239,0.224,0.225,0.234,0.231
1001.00,0.24,0.239,0.247,0.244,0.242,0.225,0.229,0.235,0.231
1002.00,0.242,0.244,0.248,0.246,0.244,0.226,0.232,0.236,0.234
1003.00,0.243,0.245,0.248,0.248,0.246,0.227,0.233,0.237,0.236
1004.00,0.244,0.245,0.248,0.248,0.247,0.229,0.234,0.238,0.237
1005.00,0.244,0.245,0.248,0.249,0.247,0.23,0.234,0.238,0.238
1006.00,0.244,0.245,0.248,0.25,0.248,0.229,0.234,0.238,0.238
1007.00,0.244,0.246,0.248,0.249,0.248,0.229,0.234,0.238,0.238
1008.00,0.244,0.246,0.248,0.249,0.25,0.229,0.234,0.238,0.238
1009.00,0.243,0.246,0.249,0.248,0.248,0.229,0.235,0.238,0.238
1010.00,0.243,0.247,0.249,0.248,0.248,0.229,0.235,0.238,0.238
1011.00,0.244,0.246,0.251,0.249,0.248,0.228,0.234,0.237,0.236
1012.00,0.245,0.246,0.252,0.248,0.248,0.228,0.234,0.237,0.235
1013.00,0.245,0.244,0.25,0.247,0.247,0.228,0.234,0.232,0.235
1014.00,0.244,0.243,0.247,0.245,0.245,0.228,0.231,0.232,0.234
1015.00,0.243,0.243,0.247,0.243,0.245,0.227,0.231,0.232,0.233
1016.00,0.242,0.243,0.246,0.242,0.243,0.226,0.23,0.232,0.234
1017.00,0.242,0.243,0.247,0.242,0.244,0.226,0.23,0.232,0.234
1018.00,0.241,0.243,0.245,0.242,0.244,0.226,0.231,0.232,0.235
1019.00,0.242,0.245,0.245,0.247,0.245,0.227,0.233,0.232,0.235
1020.00,0.244,0.246,0.246,0.247,0.247,0.227,0.234,0.234,0.235
1021.00,0.245,0.247,0.246,0.248,0.247,0.227,0.233,0.235,0.237
1022.00,0.246,0.249,0.246,0.249,0.253,0.23,0.233,0.237,0.237
1023.00,0.249,0.249,0.249,0.25,0.252,0.232,0.237,0.24,0.239
1024.00,0.25,0.251,0.25,0.253,0.257,0.233,0.238,0.24,0.241
1025.00,0.25,0.252,0.25,0.253,0.257,0.235,0.238,0.244,0.243
1026.00,0.251,0.254,0.252,0.254,0.257,0.235,0.238,0.244,0.245
1027.00,0.251,0.254,0.253,0.257,0.257,0.235,0.239,0.244,0.245
1028.00,0.252,0.255,0.254,0.257,0.258,0.238,0.24,0.245,0.245
1029.00,0.254,0.255,0.255,0.257,0.259,0.238,0.241,0.245,0.245
1030.00,0.255,0.258,0.256,0.258,0.259,0.239,0.241,0.246,0.246
1031.00,0.255,0.258,0.257,0.259,0.259,0.239,0.241,0.249,0.246
1032.00,0.255,0.258,0.257,0.26,0.259,0.239,0.241,0.249,0.247
1033.00,0.255,0.257,0.258,0.26,0.261,0.241,0.243,0.249,0.247
1034.00,0.257,0.258,0.259,0.261,0.26,0.241,0.244,0.25,0.249
1035.00,0.258,0.26,0.262,0.264,0.26,0.242,0.243,0.251,0.249
1036.00,0.258,0.26,0.262,0.263,0.262,0.243,0.244,0.251,0.25
1037.00,0.261,0.261,0.262,0.264,0.264,0.245,0.249,0.252,0.251
1038.00,0.262,0.261,0.263,0.266,0.266,0.245,0.251,0.255,0.252
1039.00,0.262,0.262,0.264,0.266,0.268,0.246,0.251,0.256,0.255
1040.00,0.262,0.265,0.267,0.266,0.27,0.246,0.252,0.256,0.255
1041.00,0.267,0.265,0.271,0.269,0.273,0.246,0.252,0.257,0.258
1042.00,0.266,0.266,0.271,0.269,0.272,0.247,0.253,0.257,0.259
1043.00,0.265,0.267,0.271,0.271,0.272,0.251,0.254,0.259,0.26
1044.00,0.265,0.267,0.269,0.271,0.272,0.251,0.254,0.26,0.261
1045.00,0.265,0.267,0.269,0.272,0.273,0.252,0.254,0.261,0.261
1046.00,0.267,0.267,0.269,0.274,0.276,0.252,0.255,0.261,0.261
1047.00,0.268,0.267,0.269,0.272,0.275,0.253,0.255,0.262,0.262
1048.00,0.269,0.267,0.269,0.273,0.275,0.255,0.256,0.263,0.263
1049.00,0.267,0.267,0.271,0.272,0.275,0.254,0.256,0.262,0.263
1050.00,0.267,0.267,0.271,0.272,0.273,0.254,0.256,0.262,0.264
1051.00,0.267,0.269,0.27,0.272,0.274,0.253,0.257,0.262,0.264
1052.00,0.269,0.269,0.27,0.272,0.274,0.253,0.257,0.259,0.261
1053.00,0.269,0.269,0.271,0.272,0.274,0.254,0.257,0.263,0.261
1054.00,0.27,0.272,0.273,0.274,0.276,0.254,0.257,0.263,0.261
1055.00,0.27,0.272,0.273,0.273,0.276,0.254,0.259,0.264,0.261
1056.00,0.27,0.272,0.275,0.275,0.279,0.256,0.26,0.266,0.264
1057.00,0.27,0.276,0.276,0.275,0.279,0.263,0.266,0.269,0.268
1058.00,0.275,0.28,0.281,0.278,0.282,0.263,0.267,0.269,0.269
1059.00,0.279,0.281,0.287,0.284,0.284,0.264,0.269,0.27,0.27
1060.00,0.287,0.284,0.289,0.286,0.287,0.271,0.272,0.275,0.278
1061.00,0.288,0.284,0.291,0.293,0.29,0.272,0.273,0.276,0.278
1062.00,0.289,0.29,0.291,0.293,0.291,0.273,0.275,0.279,0.282
1063.00,0.289,0.292,0.291,0.293,0.295,0.274,0.275,0.279,0.284
1064.00,0.289,0.292,0.291,0.294,0.295,0.274,0.274,0.281,0.284
1065.00,0.289,0.291,0.291,0.295,0.295,0.274,0.273,0.281,0.283
1066.00,0.288,0.291,0.291,0.294,0.295,0.274,0.277,0.281,0.284
1067.00,0.289,0.291,0.291,0.295,0.298,0.274,0.277,0.281,0.284
1068.00,0.289,0.291,0.292,0.295,0.299,0.277,0.277,0.283,0.29
1069.00,0.291,0.292,0.299,0.298,0.299,0.277,0.277,0.284,0.291
1070.00,0.295,0.301,0.299,0.301,0.299,0.278,0.279,0.286,0.289
1071.00,0.297,0.301,0.299,0.301,0.3,0.278,0.281,0.285,0.29
1072.00,0.294,0.299,0.3,0.301,0.3,0.28,0.286,0.29,0.29
1073.00,0.294,0.299,0.302,0.302,0.3,0.279,0.283,0.29,0.291
1074.00,0.295,0.3,0.304,0.302,0.303,0.279,0.283,0.29,0.29
1075.00,0.293,0.301,0.305,0.303,0.302,0.28,0.282,0.29,0.293
1076.00,0.296,0.301,0.305,0.303,0.303,0.281,0.287,0.289,0.291
1077.00,0.296,0.3,0.304,0.305,0.301,0.281,0.291,0.291,0.291
1078.00,0.298,0.301,0.305,0.305,0.302,0.281,0.29,0.292,0.291
1079.00,0.298,0.3,0.305,0.305,0.302,0.281,0.287,0.295,0.292
1080.00,0.295,0.302,0.3,0.306,0.304,0.281,0.287,0.294,0.292
1081.00,0.296,0.297,0.301,0.306,0.304,0.281,0.287,0.294,0.291
1082.00,0.295,0.296,0.3,0.308,0.306,0.283,0.287,0.293,0.295
1083.00,0.295,0.296,0.3,0.308,0.306,0.284,0.289,0.293,0.295
1084.00,0.294,0.296,0.3,0.308,0.306,0.286,0.289,0.294,0.295
1085.00,0.295,0.298,0.301,0.302,0.304,0.282,0.286,0.293,0.292
1086.00,0.295,0.297,0.299,0.302,0.301,0.281,0.285,0.293,0.292
1087.00,0.295,0.299,0.3,0.302,0.302,0.281,0.285,0.294,0.292
1088.00,0.301,0.3,0.305,0.302,0.303,0.281,0.287,0.293,0.292
1089.00,0.303,0.303,0.309,0.307,0.306,0.282,0.294,0.296,0.293
1090.00,0.303,0.303,0.309,0.307,0.309,0.285,0.294,0.299,0.296
1091.00,0.303,0.304,0.311,0.307,0.309,0.292,0.293,0.301,0.296
1092.00,0.311,0.306,0.313,0.31,0.309,0.291,0.294,0.3,0.296
1093.00,0.311,0.306,0.311,0.309,0.312,0.292,0.294,0.3,0.296
1094.00,0.31,0.306,0.303,0.308,0.311,0.291,0.295,0.302,0.296
1095.00,0.311,0.304,0.303,0.308,0.312,0.29,0.294,0.3,0.297
1096.00,0.313,0.312,0.306,0.31,0.319,0.288,0.295,0.302,0.296
1097.00,0.312,0.31,0.306,0.31,0.318,0.291,0.295,0.303,0.296
1098.00,0.313,0.31,0.319,0.314,0.318,0.299,0.298,0.309,0.296
1099.00,0.312,0.311,0.318,0.322,0.32,0.298,0.3,0.311,0.297
1100.00,0.137,0.23,0.258,0.179,0.214,0.218,0.176,0.218,0.195
